#Frequency	Median Mag	Phase (Rad)	-1 Sigma Mag	-1 Sigma Phase	+1 Sigma Mag	+1 Sigma Phase
5.000000000000000000e+00	1.198631900000000083e+00	5.096937099999999943e-02	9.952602099999999785e-01	-2.367913399999999891e-01	1.415475700000000003e+00	3.335892500000000038e-01
5.279491000000000156e+00	1.192091299999999965e+00	3.191827400000000342e-02	1.004471399999999903e+00	-2.098682900000000129e-01	1.392553900000000011e+00	2.663693100000000258e-01
5.574605000000000032e+00	1.181450499999999959e+00	1.366266000000000008e-02	1.011989000000000027e+00	-1.819252199999999986e-01	1.358973800000000010e+00	2.066774899999999915e-01
5.886215299999999928e+00	1.168133099999999924e+00	-2.291949900000000030e-03	1.020333900000000016e+00	-1.544023399999999990e-01	1.321212999999999971e+00	1.499360999999999888e-01
6.215244099999999605e+00	1.152135600000000037e+00	-1.389500599999999968e-02	1.029059299999999899e+00	-1.299070499999999961e-01	1.279555800000000021e+00	1.008973900000000035e-01
6.562665100000000251e+00	1.135588000000000042e+00	-2.236664999999999834e-02	1.035749999999999948e+00	-1.083924700000000046e-01	1.237855600000000056e+00	6.103863500000000081e-02
6.929506199999999616e+00	1.117870600000000048e+00	-2.908662500000000137e-02	1.038509899999999986e+00	-9.222867699999999502e-02	1.199861899999999926e+00	3.161222200000000232e-02
7.316853100000000332e+00	1.100809399999999938e+00	-3.447817799999999822e-02	1.036199199999999987e+00	-8.083121199999999951e-02	1.168405399999999927e+00	1.112239100000000057e-02
7.725851999999999720e+00	1.085771599999999948e+00	-3.805782299999999757e-02	1.027970000000000050e+00	-7.529571300000000023e-02	1.144537099999999974e+00	-1.921616899999999996e-03
8.157713100000000495e+00	1.071077700000000021e+00	-4.035012699999999952e-02	1.016588300000000000e+00	-7.237473699999999455e-02	1.126863600000000076e+00	-8.475045000000000495e-03
8.613714599999999777e+00	1.058279399999999981e+00	-4.178245500000000306e-02	1.005487900000000101e+00	-7.330131800000000419e-02	1.114101400000000019e+00	-1.094720400000000031e-02
9.095205699999999283e+00	1.048096099999999975e+00	-4.244917000000000135e-02	9.956002999999999936e-01	-7.428152500000000102e-02	1.103520999999999974e+00	-1.029517700000000084e-02
9.603611199999999570e+00	1.038861899999999894e+00	-4.246411299999999778e-02	9.883528099999999705e-01	-7.541872500000000590e-02	1.093391900000000083e+00	-8.288019500000000372e-03
1.014043599999999934e+01	1.031657199999999941e+00	-4.150245000000000323e-02	9.834439000000000375e-01	-7.649194400000000615e-02	1.084043799999999891e+00	-5.315728999999999940e-03
1.070726799999999912e+01	1.025682800000000006e+00	-3.951373300000000227e-02	9.810175799999999446e-01	-7.637236999999999498e-02	1.073216200000000065e+00	-1.875323699999999942e-03
1.130578500000000020e+01	1.020317600000000047e+00	-3.669060899999999903e-02	9.798986200000000535e-01	-7.600324099999999916e-02	1.063170399999999960e+00	1.055357299999999925e-03
1.193775800000000054e+01	1.016426599999999958e+00	-3.451604999999999951e-02	9.800645199999999946e-01	-7.503880999999999746e-02	1.054068800000000028e+00	3.792746599999999822e-03
1.260505700000000040e+01	1.012872400000000006e+00	-3.217680700000000171e-02	9.799060000000000548e-01	-7.390221299999999438e-02	1.045978899999999934e+00	5.887194200000000176e-03
1.330965699999999963e+01	1.009528699999999946e+00	-2.999065600000000095e-02	9.795351399999999709e-01	-7.175676899999999803e-02	1.039066199999999940e+00	7.389308800000000087e-03
1.405364299999999922e+01	1.006361400000000073e+00	-2.811159400000000017e-02	9.776019099999999629e-01	-6.895481800000000105e-02	1.034033100000000038e+00	8.023492400000000260e-03
1.483921600000000041e+01	1.003001599999999938e+00	-2.656036399999999950e-02	9.750148499999999885e-01	-6.509348299999999365e-02	1.030643799999999999e+00	7.152564000000000144e-03
1.566870100000000043e+01	1.000157600000000091e+00	-2.534066600000000127e-02	9.717642800000000358e-01	-5.975648699999999702e-02	1.028199800000000108e+00	5.487818799999999615e-03
1.654455300000000051e+01	9.974701400000000051e-01	-2.342728800000000097e-02	9.684707500000000469e-01	-5.361588600000000149e-02	1.026007600000000020e+00	3.291505200000000193e-03
1.746936399999999878e+01	9.954052799999999479e-01	-2.150636200000000109e-02	9.654802000000000106e-01	-4.669547599999999965e-02	1.024592900000000029e+00	1.431793800000000054e-03
1.844586999999999932e+01	9.932082399999999645e-01	-1.915511799999999876e-02	9.630895699999999504e-01	-3.964220499999999980e-02	1.022590700000000075e+00	-1.115976900000000032e-04
1.947696099999999930e+01	9.914689100000000366e-01	-1.648561000000000124e-02	9.618439800000000428e-01	-3.310707699999999865e-02	1.020056800000000097e+00	-5.649598899999999906e-04
2.056568800000000152e+01	9.894753200000000470e-01	-1.346443100000000066e-02	9.614933900000000033e-01	-2.792278800000000047e-02	1.017505300000000057e+00	9.328631700000000011e-04
2.171527199999999880e+01	9.883964299999999925e-01	-1.018446200000000003e-02	9.618546999999999514e-01	-2.425949900000000034e-02	1.015657999999999950e+00	4.331814800000000076e-03
2.292911700000000152e+01	9.881401399999999446e-01	-6.867470599999999856e-03	9.633667200000000097e-01	-2.169923799999999917e-02	1.013342799999999988e+00	8.741224100000000163e-03
2.421081300000000169e+01	9.884536600000000117e-01	-3.704553599999999957e-03	9.652357499999999479e-01	-1.999961100000000047e-02	1.011830100000000066e+00	1.334515699999999985e-02
2.556415399999999849e+01	9.889672400000000252e-01	-7.118610800000000531e-04	9.675794199999999678e-01	-1.860417500000000057e-02	1.010479200000000022e+00	1.784115099999999954e-02
2.699314400000000091e+01	9.898536599999999686e-01	1.725909000000000080e-03	9.699914099999999983e-01	-1.758400200000000135e-02	1.010298499999999988e+00	2.188176699999999988e-02
2.850201200000000057e+01	9.910773000000000499e-01	3.997202000000000047e-03	9.719176099999999874e-01	-1.669686299999999929e-02	1.010334700000000030e+00	2.507750900000000130e-02
3.009522300000000072e+01	9.923631299999999822e-01	6.246227899999999902e-03	9.739664300000000496e-01	-1.584751100000000162e-02	1.010926599999999898e+00	2.847776200000000021e-02
3.177749100000000126e+01	9.938774900000000301e-01	8.004724399999999657e-03	9.762614200000000464e-01	-1.509920000000000012e-02	1.011956899999999937e+00	3.103557900000000064e-02
3.355379599999999840e+01	9.956868500000000122e-01	9.503388099999999367e-03	9.783226000000000422e-01	-1.445444499999999979e-02	1.013212500000000071e+00	3.322027200000000208e-02
3.542939200000000000e+01	9.976671299999999576e-01	1.062318400000000079e-02	9.798919099999999771e-01	-1.315644600000000046e-02	1.015188299999999932e+00	3.455714399999999797e-02
3.740983200000000153e+01	9.996247499999999508e-01	1.137962500000000085e-02	9.812914299999999646e-01	-1.219360599999999920e-02	1.017948599999999981e+00	3.502081499999999681e-02
3.950097399999999936e+01	1.001578099999999916e+00	1.166119699999999988e-02	9.823328999999999533e-01	-1.173192200000000053e-02	1.021085100000000079e+00	3.479863099999999654e-02
4.170900699999999972e+01	1.003487900000000099e+00	1.154598100000000030e-02	9.831437400000000437e-01	-1.123374899999999947e-02	1.024377599999999999e+00	3.396652800000000277e-02
4.404046499999999753e+01	1.005375600000000036e+00	1.131245799999999919e-02	9.833128799999999448e-01	-1.108725300000000004e-02	1.027596200000000071e+00	3.318223299999999848e-02
4.650224699999999700e+01	1.006988699999999959e+00	1.034401599999999928e-02	9.835027200000000525e-01	-1.057042400000000014e-02	1.030712999999999990e+00	3.118670800000000048e-02
4.910163899999999870e+01	1.007997400000000043e+00	9.059041300000000851e-03	9.835702899999999582e-01	-1.030289799999999957e-02	1.033263499999999890e+00	2.851698500000000164e-02
5.184633199999999675e+01	1.009368899999999902e+00	7.951980200000000054e-03	9.842509600000000081e-01	-1.092748900000000030e-02	1.035414400000000068e+00	2.643325499999999925e-02
5.474444799999999844e+01	1.010196000000000094e+00	6.418377299999999952e-03	9.850738300000000391e-01	-1.167987399999999981e-02	1.036204300000000078e+00	2.388092299999999835e-02
5.780456399999999917e+01	1.010649200000000025e+00	4.908539800000000231e-03	9.858168899999999457e-01	-1.270310799999999941e-02	1.035941000000000001e+00	2.173784800000000059e-02
6.103573500000000251e+01	1.010582799999999892e+00	3.234655900000000216e-03	9.869540100000000482e-01	-1.437089000000000075e-02	1.034692299999999898e+00	2.037182800000000155e-02
6.444752200000000641e+01	1.010380499999999904e+00	1.523929299999999924e-03	9.887138100000000263e-01	-1.651900300000000085e-02	1.032683599999999924e+00	1.926020200000000057e-02
6.805002199999999846e+01	1.009974499999999997e+00	-3.000959900000000073e-04	9.899236799999999725e-01	-1.869925999999999880e-02	1.030182600000000059e+00	1.849261199999999855e-02
7.185389600000000598e+01	1.009341000000000044e+00	-1.773045900000000093e-03	9.909610899999999889e-01	-2.103533200000000034e-02	1.027311099999999922e+00	1.787806000000000117e-02
7.587039900000000614e+01	1.008270599999999906e+00	-3.313611599999999931e-03	9.917944400000000549e-01	-2.324693099999999846e-02	1.024526300000000001e+00	1.734924700000000167e-02
8.011141700000000299e+01	1.007106999999999974e+00	-4.527683700000000033e-03	9.926281300000000529e-01	-2.497920199999999896e-02	1.021449700000000016e+00	1.677396100000000043e-02
8.458950099999999850e+01	1.005553300000000094e+00	-5.453931799999999809e-03	9.931195299999999726e-01	-2.663718400000000125e-02	1.018193099999999962e+00	1.651089099999999976e-02
8.931790100000000621e+01	1.004056199999999954e+00	-6.023885799999999929e-03	9.931680299999999795e-01	-2.798935300000000154e-02	1.015021200000000068e+00	1.608373600000000125e-02
9.431060999999999694e+01	1.002446699999999913e+00	-6.386102599999999609e-03	9.929543199999999459e-01	-2.895896800000000160e-02	1.012031099999999961e+00	1.608432300000000106e-02
9.958240299999999934e+01	1.000892700000000080e+00	-6.418537799999999606e-03	9.923268600000000328e-01	-2.946974800000000047e-02	1.009431299999999920e+00	1.651376200000000127e-02
1.051488800000000055e+02	9.994639300000000004e-01	-5.981000400000000342e-03	9.907531699999999608e-01	-2.883847599999999831e-02	1.008107199999999981e+00	1.673985399999999846e-02
1.110265100000000018e+02	9.982216200000000317e-01	-5.344519899999999706e-03	9.883238199999999640e-01	-2.755478299999999936e-02	1.008074899999999996e+00	1.653150399999999895e-02
1.172326900000000052e+02	9.973872299999999580e-01	-4.561012100000000173e-03	9.853188800000000080e-01	-2.557789599999999927e-02	1.009216899999999972e+00	1.600549199999999964e-02
1.237857900000000058e+02	9.969065999999999761e-01	-3.636776200000000053e-03	9.827521299999999460e-01	-2.278500600000000001e-02	1.011049700000000051e+00	1.538268100000000048e-02
1.307051899999999875e+02	9.966052699999999875e-01	-2.722399899999999786e-03	9.807585100000000278e-01	-2.000107099999999874e-02	1.012753299999999967e+00	1.411913499999999967e-02
1.380113800000000026e+02	9.965762700000000418e-01	-1.703449400000000028e-03	9.793492499999999490e-01	-1.692567600000000061e-02	1.014182300000000092e+00	1.283129600000000071e-02
1.457259599999999864e+02	9.969367500000000382e-01	-1.045913199999999946e-03	9.789320700000000430e-01	-1.434448099999999920e-02	1.015408799999999889e+00	1.166903400000000000e-02
1.538717800000000011e+02	9.965883399999999614e-01	-5.873765700000000214e-04	9.784492099999999581e-01	-1.173524400000000058e-02	1.015122899999999939e+00	1.020476199999999917e-02
1.624729399999999941e+02	9.976010499999999892e-01	-1.415897000000000108e-04	9.795192900000000424e-01	-1.026039800000000043e-02	1.016141600000000089e+00	9.595346600000000462e-03
1.715548799999999972e+02	9.984608299999999659e-01	4.036667199999999765e-05	9.806486700000000001e-01	-8.729701499999999170e-03	1.016144600000000064e+00	8.865696399999999436e-03
1.811444899999999905e+02	9.989952500000000013e-01	2.301215300000000112e-04	9.821755199999999686e-01	-7.843677800000000561e-03	1.015986899999999915e+00	8.195697499999999788e-03
1.912701399999999978e+02	9.995376700000000447e-01	3.013581799999999825e-04	9.836203500000000322e-01	-7.276617099999999581e-03	1.015724999999999989e+00	7.723854599999999820e-03
2.019617900000000077e+02	1.000185700000000066e+00	3.256543899999999963e-04	9.850236599999999676e-01	-7.025697299999999687e-03	1.015399699999999905e+00	7.459919500000000356e-03
2.132510900000000049e+02	1.000597600000000087e+00	1.177040299999999987e-04	9.863465500000000441e-01	-7.025914500000000028e-03	1.014865600000000034e+00	7.112781599999999649e-03
2.251714399999999898e+02	1.000998700000000019e+00	-5.502146100000000165e-05	9.876838799999999585e-01	-7.058668199999999782e-03	1.014339799999999903e+00	6.963033300000000085e-03
2.377581199999999910e+02	1.001230099999999901e+00	-1.805286100000000056e-04	9.887651899999999605e-01	-7.122983099999999866e-03	1.013921300000000025e+00	6.709648300000000017e-03
2.510483700000000056e+02	1.001579199999999892e+00	-3.295741900000000125e-04	9.899382799999999483e-01	-7.148408299999999861e-03	1.013432399999999900e+00	6.506992300000000173e-03
2.650815200000000118e+02	1.001772499999999955e+00	-3.909814300000000057e-04	9.910912100000000002e-01	-7.089716200000000315e-03	1.012697200000000075e+00	6.313173299999999717e-03
2.798990999999999758e+02	1.001951000000000036e+00	-4.849085699999999854e-04	9.918938800000000056e-01	-7.000607199999999905e-03	1.012202899999999905e+00	6.071763600000000191e-03
2.955449499999999716e+02	1.002001399999999931e+00	-5.359709799999999667e-04	9.926757000000000497e-01	-6.817507100000000028e-03	1.011549199999999926e+00	5.731741999999999740e-03
3.120653800000000047e+02	1.002042099999999936e+00	-5.298104499999999615e-04	9.934565100000000148e-01	-6.530655300000000330e-03	1.011034800000000011e+00	5.501293299999999650e-03
3.295092700000000150e+02	1.002151900000000095e+00	-4.765201100000000193e-04	9.939433399999999530e-01	-6.227752799999999866e-03	1.010515599999999958e+00	5.162556100000000037e-03
3.479282499999999914e+02	1.002109799999999940e+00	-4.630101699999999987e-04	9.943709200000000470e-01	-5.841295699999999626e-03	1.010160200000000064e+00	4.919233500000000023e-03
3.673768099999999777e+02	1.002028900000000000e+00	-2.968839100000000061e-04	9.944863600000000137e-01	-5.524654599999999707e-03	1.009938599999999909e+00	4.946593099999999597e-03
3.879125099999999975e+02	1.001822299999999943e+00	3.864814400000000054e-05	9.943316100000000324e-01	-5.284289000000000174e-03	1.009682200000000085e+00	5.388891199999999888e-03
4.095961199999999849e+02	1.003342600000000084e+00	1.357834499999999991e-03	9.953943800000000230e-01	-4.364546599999999735e-03	1.011426299999999889e+00	7.080562999999999788e-03
4.324918000000000120e+02	1.001758200000000043e+00	1.266930600000000084e-03	9.940660500000000344e-01	-5.167578499999999665e-03	1.009783499999999945e+00	7.766417900000000159e-03
4.566673099999999863e+02	1.002830799999999911e+00	2.931181900000000024e-03	9.944750300000000376e-01	-4.857702299999999869e-03	1.011285900000000071e+00	1.094049199999999958e-02
4.821941899999999919e+02	1.005663299999999927e+00	7.997404299999999727e-04	9.960826099999999794e-01	-5.822751699999999947e-03	1.015222899999999928e+00	7.185142999999999738e-03
5.091479699999999866e+02	1.004144900000000007e+00	1.493895700000000097e-03	9.948926000000000158e-01	-6.288723799999999808e-03	1.013744100000000037e+00	9.077478599999999273e-03
5.376084299999999985e+02	1.005532199999999987e+00	1.909250400000000059e-03	9.948952599999999480e-01	-6.295321399999999692e-03	1.016439400000000104e+00	9.979838799999999829e-03
5.676597699999999804e+02	1.003974099999999980e+00	6.110745500000000496e-04	9.943020399999999981e-01	-7.653307800000000091e-03	1.013838500000000087e+00	8.765448099999999937e-03
5.993909200000000510e+02	1.003497800000000106e+00	1.473623600000000065e-03	9.936300500000000424e-01	-7.748391099999999906e-03	1.013682699999999937e+00	1.047500999999999988e-02
6.328957900000000336e+02	1.003804900000000000e+00	2.021121700000000094e-03	9.935810299999999762e-01	-7.631609999999999609e-03	1.014363099999999962e+00	1.140882200000000075e-02
6.682735300000000507e+02	1.004186900000000104e+00	2.097750700000000027e-03	9.936065600000000275e-01	-7.315356599999999626e-03	1.014961299999999955e+00	1.145409900000000057e-02
7.056288100000000441e+02	1.004449600000000054e+00	2.048175900000000042e-03	9.937903000000000153e-01	-7.068846699999999962e-03	1.015201199999999915e+00	1.109593600000000069e-02
7.450721899999999778e+02	1.004525799999999913e+00	1.878043800000000086e-03	9.941167699999999829e-01	-6.836655500000000246e-03	1.014911099999999955e+00	1.044955799999999942e-02
7.867203799999999774e+02	1.004388400000000070e+00	1.677230800000000096e-03	9.944420800000000060e-01	-6.547092499999999753e-03	1.014413400000000021e+00	9.902579099999999496e-03
8.306966200000000526e+02	1.004219200000000090e+00	1.538111800000000048e-03	9.948209300000000477e-01	-6.207291099999999798e-03	1.013716999999999979e+00	9.228446300000000060e-03
8.771310700000000224e+02	1.004042899999999960e+00	1.431404399999999973e-03	9.950189099999999787e-01	-5.915172699999999596e-03	1.013023599999999913e+00	8.788243100000000738e-03
9.261611100000000079e+02	1.003983400000000081e+00	1.450269400000000044e-03	9.952463999999999755e-01	-5.687847200000000283e-03	1.012685899999999917e+00	8.491120399999999707e-03
9.779318399999999656e+02	1.003889500000000101e+00	1.266072200000000099e-03	9.953210900000000194e-01	-5.859074899999999579e-03	1.012591599999999925e+00	8.288730200000000298e-03
1.032596500000000106e+03	1.003821800000000097e+00	9.948665400000000769e-04	9.952133800000000363e-01	-6.217671600000000340e-03	1.012642800000000065e+00	8.074937100000000381e-03
1.090316700000000083e+03	1.003821300000000027e+00	6.636149799999999663e-04	9.950867100000000409e-01	-6.972232600000000287e-03	1.012814099999999939e+00	8.162830200000000327e-03
1.151263500000000022e+03	1.003732300000000022e+00	2.549178000000000143e-04	9.946397599999999839e-01	-7.858751400000000761e-03	1.013284000000000074e+00	8.391644700000000859e-03
1.215616999999999962e+03	1.003823099999999968e+00	-3.126188700000000144e-04	9.941947500000000160e-01	-8.945647200000000215e-03	1.013818799999999909e+00	8.583204299999999329e-03
1.283567800000000034e+03	1.003845199999999993e+00	-8.983483200000000075e-04	9.936897099999999483e-01	-1.014075600000000077e-02	1.014431099999999919e+00	8.700123199999999779e-03
1.355317000000000007e+03	1.003954800000000036e+00	-1.558851399999999906e-03	9.931916800000000212e-01	-1.150467099999999930e-02	1.015047400000000044e+00	8.752979600000000346e-03
1.431076700000000073e+03	1.004117200000000043e+00	-2.314045199999999886e-03	9.927424900000000330e-01	-1.283140600000000006e-02	1.015751499999999918e+00	8.684814199999999970e-03
1.511071300000000065e+03	1.004255799999999921e+00	-2.990372499999999992e-03	9.925178000000000056e-01	-1.408654900000000029e-02	1.016362100000000046e+00	8.505723700000000428e-03
1.595537499999999909e+03	1.004399199999999936e+00	-3.763990899999999917e-03	9.923806800000000150e-01	-1.553659200000000011e-02	1.017082199999999936e+00	8.161027600000000590e-03
1.684725200000000086e+03	1.004784399999999911e+00	-4.642776500000000105e-03	9.924998999999999905e-01	-1.671291499999999833e-02	1.017621600000000015e+00	7.612912099999999925e-03
1.778898200000000088e+03	1.005164900000000028e+00	-5.427987500000000173e-03	9.926039399999999624e-01	-1.787552400000000027e-02	1.018143699999999985e+00	7.134955600000000321e-03
1.878335399999999936e+03	1.005571599999999899e+00	-6.322697099999999987e-03	9.926895399999999814e-01	-1.913132099999999974e-02	1.018781399999999948e+00	6.920551100000000080e-03
1.983330999999999904e+03	1.006090200000000046e+00	-7.110136300000000076e-03	9.928152300000000485e-01	-2.041122299999999917e-02	1.019455000000000000e+00	6.466382199999999754e-03
2.094195600000000013e+03	1.006580899999999890e+00	-7.930474200000000792e-03	9.930363300000000226e-01	-2.163743699999999895e-02	1.020374099999999951e+00	6.174225999999999673e-03
