#Frequency	Median Mag	Phase (Rad)	-1 Sigma Mag	-1 Sigma Phase	+1 Sigma Mag	+1 Sigma Phase
5.000000000000000000e+00	1.044346999999999914e+00	-8.043133399999999322e-03	9.936152900000000399e-01	-9.688912900000000439e-02	1.098415799999999942e+00	8.026114099999999418e-02
5.279491000000000156e+00	1.043611199999999961e+00	-1.250284200000000012e-02	9.917294399999999621e-01	-8.673477200000000165e-02	1.097134300000000007e+00	6.140367000000000047e-02
5.574605000000000032e+00	1.041922699999999979e+00	-1.696017199999999905e-02	9.915976199999999574e-01	-7.703146800000000571e-02	1.093611099999999947e+00	4.434334899999999718e-02
5.886215299999999928e+00	1.039173499999999972e+00	-1.989293899999999837e-02	9.925094800000000550e-01	-6.867072400000000243e-02	1.087075800000000037e+00	2.968367699999999859e-02
6.215244099999999605e+00	1.035752000000000006e+00	-2.199260000000000104e-02	9.932479699999999800e-01	-6.116924499999999709e-02	1.078968300000000102e+00	1.798127199999999953e-02
6.562665100000000251e+00	1.032350000000000101e+00	-2.275602900000000053e-02	9.944819900000000379e-01	-5.414782800000000201e-02	1.070193600000000078e+00	9.323902999999999705e-03
6.929506199999999616e+00	1.028844700000000056e+00	-2.256095799999999901e-02	9.960919499999999482e-01	-4.807053599999999705e-02	1.061821300000000079e+00	3.271329800000000176e-03
7.316853100000000332e+00	1.025876100000000068e+00	-2.201096199999999850e-02	9.970820799999999817e-01	-4.290972900000000062e-02	1.054935600000000084e+00	-8.297508199999999515e-04
7.725851999999999720e+00	1.023239500000000080e+00	-2.110730599999999929e-02	9.980203899999999795e-01	-3.854986199999999724e-02	1.049112000000000045e+00	-3.233124100000000015e-03
8.157713100000000495e+00	1.021143600000000040e+00	-1.982171500000000017e-02	9.980500300000000324e-01	-3.475127699999999709e-02	1.044812899999999933e+00	-4.549704800000000174e-03
8.613714599999999777e+00	1.019557999999999964e+00	-1.859989299999999929e-02	9.983216299999999599e-01	-3.181589499999999682e-02	1.041761900000000018e+00	-4.991603600000000043e-03
9.095205699999999283e+00	1.018830499999999972e+00	-1.753784200000000140e-02	9.985642300000000526e-01	-2.991775600000000021e-02	1.039780499999999996e+00	-4.948255500000000098e-03
9.603611199999999570e+00	1.018147700000000100e+00	-1.663356699999999841e-02	9.988628499999999688e-01	-2.897793599999999928e-02	1.038357299999999928e+00	-4.310974399999999672e-03
1.014043599999999934e+01	1.017768800000000029e+00	-1.611528900000000139e-02	9.995959500000000109e-01	-2.875418399999999861e-02	1.037013299999999916e+00	-3.928259600000000122e-03
1.070726799999999912e+01	1.017375200000000035e+00	-1.596860799999999872e-02	9.999337700000000551e-01	-2.891384300000000157e-02	1.036072899999999963e+00	-3.753125600000000155e-03
1.130578500000000020e+01	1.017141599999999979e+00	-1.609583700000000173e-02	9.998980200000000540e-01	-2.931701600000000130e-02	1.035173799999999922e+00	-3.556936899999999999e-03
1.193775800000000054e+01	1.016786399999999979e+00	-1.678856600000000129e-02	9.998504400000000070e-01	-2.976464399999999982e-02	1.034222799999999998e+00	-4.031896899999999964e-03
1.260505700000000040e+01	1.016054900000000094e+00	-1.758455700000000066e-02	9.993574400000000413e-01	-3.031687500000000007e-02	1.032934500000000089e+00	-5.106377900000000358e-03
1.330965699999999963e+01	1.014931199999999922e+00	-1.857868000000000019e-02	9.984320899999999943e-01	-3.091134400000000032e-02	1.031543199999999993e+00	-6.520880899999999605e-03
1.405364299999999922e+01	1.013481300000000029e+00	-1.963413699999999942e-02	9.968505100000000230e-01	-3.125635499999999956e-02	1.030129700000000037e+00	-8.173402499999999488e-03
1.483921600000000041e+01	1.011642200000000047e+00	-2.072328799999999943e-02	9.949629300000000232e-01	-3.144500399999999862e-02	1.028081599999999929e+00	-9.976506600000000641e-03
1.566870100000000043e+01	1.009249499999999911e+00	-2.145967299999999855e-02	9.924613399999999697e-01	-3.147277700000000039e-02	1.025528199999999890e+00	-1.129432000000000005e-02
1.654455300000000051e+01	1.006700900000000010e+00	-2.182883899999999919e-02	9.898767099999999930e-01	-3.126510400000000189e-02	1.022677599999999964e+00	-1.228119100000000033e-02
1.746936399999999878e+01	1.003597300000000025e+00	-2.154998300000000172e-02	9.868247999999999465e-01	-3.070377900000000049e-02	1.019587999999999939e+00	-1.262911499999999979e-02
1.844586999999999932e+01	1.000678399999999968e+00	-2.081787499999999957e-02	9.841072899999999679e-01	-2.994765799999999853e-02	1.016333699999999896e+00	-1.191817499999999960e-02
1.947696099999999930e+01	9.975998499999999547e-01	-1.941225599999999926e-02	9.814428299999999883e-01	-2.877118299999999879e-02	1.013276000000000066e+00	-1.030022600000000087e-02
2.056568800000000152e+01	9.949937800000000498e-01	-1.743001599999999957e-02	9.792461599999999766e-01	-2.732816000000000065e-02	1.010586299999999937e+00	-7.828606199999999307e-03
2.171527199999999880e+01	9.928143499999999566e-01	-1.502189299999999970e-02	9.777553399999999728e-01	-2.568445199999999998e-02	1.008348000000000022e+00	-4.569187199999999796e-03
2.292911700000000152e+01	9.911737000000000464e-01	-1.226677099999999923e-02	9.764843300000000115e-01	-2.404657400000000111e-02	1.006382600000000016e+00	-9.897225700000000619e-04
2.421081300000000169e+01	9.900442900000000490e-01	-9.693563400000000663e-03	9.755277799999999555e-01	-2.216959799999999869e-02	1.004999100000000034e+00	2.666671600000000003e-03
2.556415399999999849e+01	9.894004699999999763e-01	-6.870766799999999778e-03	9.750546199999999830e-01	-2.021223299999999959e-02	1.003952299999999909e+00	6.410352900000000111e-03
2.699314400000000091e+01	9.892901100000000003e-01	-4.091393500000000197e-03	9.750399199999999489e-01	-1.821595000000000159e-02	1.003498400000000013e+00	9.678381099999999390e-03
2.850201200000000057e+01	9.895558700000000041e-01	-1.439226100000000081e-03	9.751574200000000525e-01	-1.595415700000000006e-02	1.003867999999999983e+00	1.292423799999999935e-02
3.009522300000000072e+01	9.901993399999999834e-01	1.240814299999999908e-03	9.755955200000000493e-01	-1.395620699999999999e-02	1.004679499999999948e+00	1.600792300000000029e-02
3.177749100000000126e+01	9.910509400000000468e-01	3.679689600000000081e-03	9.762178299999999531e-01	-1.183478500000000044e-02	1.006158499999999956e+00	1.891826599999999955e-02
3.355379599999999840e+01	9.922187999999999564e-01	5.826040200000000280e-03	9.768852500000000383e-01	-9.572023600000000021e-03	1.008171699999999893e+00	2.127514999999999962e-02
3.542939200000000000e+01	9.937462700000000426e-01	7.812248699999999740e-03	9.776225600000000293e-01	-7.672899199999999587e-03	1.010530799999999951e+00	2.337270400000000109e-02
3.740983200000000153e+01	9.955947099999999939e-01	9.404188100000000425e-03	9.785290700000000008e-01	-6.009012499999999944e-03	1.013170600000000032e+00	2.483086699999999952e-02
3.950097399999999936e+01	9.976109899999999753e-01	1.069458199999999935e-02	9.799388599999999672e-01	-4.534074299999999585e-03	1.016116800000000042e+00	2.625525399999999870e-02
4.170900699999999972e+01	9.998616599999999854e-01	1.148092099999999983e-02	9.814849799999999513e-01	-3.676363399999999903e-03	1.019360100000000102e+00	2.698839700000000077e-02
4.404046499999999753e+01	1.002134800000000103e+00	1.181310500000000083e-02	9.829156300000000401e-01	-3.399656500000000203e-03	1.022394500000000095e+00	2.761459000000000136e-02
4.650224699999999700e+01	1.004432900000000073e+00	1.190535799999999957e-02	9.847856400000000177e-01	-3.773584799999999805e-03	1.024920300000000006e+00	2.762768900000000041e-02
4.910163899999999870e+01	1.006594400000000000e+00	1.113658900000000056e-02	9.867550800000000066e-01	-4.690381399999999680e-03	1.027181300000000075e+00	2.725891600000000109e-02
5.184633199999999675e+01	1.008423400000000081e+00	1.008494700000000036e-02	9.886329299999999654e-01	-5.771690099999999927e-03	1.028816900000000034e+00	2.684674199999999983e-02
5.474444799999999844e+01	1.010002800000000089e+00	8.794292000000000428e-03	9.906215699999999513e-01	-7.570014699999999715e-03	1.029695599999999933e+00	2.590975200000000117e-02
5.780456399999999917e+01	1.011276499999999912e+00	7.309389599999999675e-03	9.927269300000000074e-01	-9.714757699999999885e-03	1.030031799999999942e+00	2.490332199999999857e-02
6.103573500000000251e+01	1.012033299999999914e+00	5.710400099999999625e-03	9.945466400000000373e-01	-1.217910600000000031e-02	1.029591799999999946e+00	2.382844799999999860e-02
6.444752200000000641e+01	1.012225099999999989e+00	4.104999500000000405e-03	9.960036599999999574e-01	-1.427933600000000011e-02	1.028737800000000036e+00	2.288073399999999979e-02
6.805002199999999846e+01	1.012320200000000003e+00	2.636423599999999923e-03	9.971718099999999918e-01	-1.624860800000000119e-02	1.027449899999999916e+00	2.170457699999999920e-02
7.185389600000000598e+01	1.011983599999999983e+00	1.541831900000000108e-03	9.981436000000000197e-01	-1.801070899999999975e-02	1.025709200000000099e+00	2.073848799999999937e-02
7.587039900000000614e+01	1.011256399999999944e+00	3.197887199999999912e-04	9.986150000000000304e-01	-1.916239600000000168e-02	1.023862300000000003e+00	1.994061199999999992e-02
8.011141700000000299e+01	1.010558499999999915e+00	-5.669214899999999550e-04	9.991959500000000549e-01	-2.015145299999999973e-02	1.021956800000000110e+00	1.926928300000000163e-02
8.458950099999999850e+01	1.009738500000000094e+00	-1.162872300000000010e-03	9.993979400000000402e-01	-2.077049699999999888e-02	1.020159000000000038e+00	1.872950500000000046e-02
8.931790100000000621e+01	1.008936800000000078e+00	-1.643275700000000053e-03	9.992566299999999790e-01	-2.111159199999999847e-02	1.018603499999999995e+00	1.825811700000000079e-02
9.431060999999999694e+01	1.008183300000000004e+00	-1.708737600000000091e-03	9.988791000000000198e-01	-2.123510699999999959e-02	1.017481000000000080e+00	1.792572300000000105e-02
9.958240299999999934e+01	1.007392599999999971e+00	-1.524680299999999931e-03	9.979578799999999639e-01	-2.090018600000000115e-02	1.016861800000000038e+00	1.758430500000000146e-02
1.051488800000000055e+02	1.006816099999999992e+00	-1.359707099999999964e-03	9.968998999999999500e-01	-2.033350199999999983e-02	1.016841099999999942e+00	1.733236299999999994e-02
1.110265100000000018e+02	1.005312500000000053e+00	-9.870934499999999673e-05	9.944634500000000266e-01	-1.902526400000000006e-02	1.016483699999999990e+00	1.842724999999999919e-02
1.172326900000000052e+02	1.005973800000000029e+00	-5.109544500000000322e-04	9.940475100000000230e-01	-1.818588800000000075e-02	1.018127400000000016e+00	1.652042600000000125e-02
1.237857900000000058e+02	1.005746999999999947e+00	-2.593716699999999934e-05	9.925860699999999870e-01	-1.693862299999999987e-02	1.019196400000000002e+00	1.597572900000000101e-02
1.307051899999999875e+02	1.005762199999999940e+00	3.282579400000000232e-04	9.911956699999999731e-01	-1.546021199999999922e-02	1.020439499999999944e+00	1.553500600000000051e-02
1.380113800000000026e+02	1.006046100000000054e+00	6.638777599999999991e-04	9.900767600000000002e-01	-1.371305800000000019e-02	1.021881700000000004e+00	1.492664600000000001e-02
1.457259599999999864e+02	1.006170000000000009e+00	9.980585599999999488e-04	9.892565100000000333e-01	-1.212309999999999950e-02	1.023242699999999950e+00	1.413575299999999917e-02
1.538717800000000011e+02	1.006479399999999913e+00	1.419060599999999971e-03	9.889681200000000061e-01	-1.065334499999999983e-02	1.024436399999999914e+00	1.344147700000000029e-02
1.624729399999999941e+02	1.006891200000000097e+00	1.774274200000000015e-03	9.889321599999999490e-01	-9.174335800000000748e-03	1.024850199999999933e+00	1.252165499999999959e-02
1.715548799999999972e+02	1.007684500000000094e+00	1.429450399999999998e-03	9.897254800000000463e-01	-8.379218699999999714e-03	1.025245799999999985e+00	1.120320799999999922e-02
1.811444899999999905e+02	1.008020099999999974e+00	1.471298800000000063e-03	9.904644599999999910e-01	-7.399621900000000196e-03	1.025166599999999928e+00	1.024855600000000068e-02
1.912701399999999978e+02	1.008320200000000000e+00	1.266319599999999896e-03	9.914697799999999672e-01	-6.825793900000000011e-03	1.024835500000000010e+00	9.530621099999999138e-03
2.019617900000000077e+02	1.008607699999999996e+00	1.010333900000000068e-03	9.926248800000000427e-01	-6.616318300000000041e-03	1.024379600000000057e+00	8.719950299999999418e-03
2.132510900000000049e+02	1.008764699999999959e+00	7.525522800000000474e-04	9.938292199999999577e-01	-6.537587200000000154e-03	1.023805099999999912e+00	8.083416600000000590e-03
2.251714399999999898e+02	1.008885000000000032e+00	4.817164400000000109e-04	9.949381699999999551e-01	-6.566872199999999708e-03	1.023108700000000093e+00	7.660230799999999916e-03
2.377581199999999910e+02	1.008822200000000002e+00	2.351442699999999888e-04	9.958263400000000320e-01	-6.649311800000000036e-03	1.022119400000000011e+00	7.250305700000000096e-03
2.510483700000000056e+02	1.008745999999999921e+00	-2.847800199999999955e-06	9.966334599999999710e-01	-6.751419699999999628e-03	1.021344100000000088e+00	6.907312399999999790e-03
2.650815200000000118e+02	1.008678200000000080e+00	-1.971673900000000049e-04	9.973304699999999690e-01	-6.815793700000000351e-03	1.020586400000000005e+00	6.621625699999999712e-03
2.798990999999999758e+02	1.008639999999999981e+00	-3.221377099999999912e-04	9.978038000000000185e-01	-6.864277000000000226e-03	1.019801699999999922e+00	6.325326600000000243e-03
2.955449499999999716e+02	1.008570699999999931e+00	-4.368067400000000028e-04	9.983396500000000229e-01	-6.823778600000000166e-03	1.019009300000000007e+00	6.117600800000000220e-03
3.120653800000000047e+02	1.008567800000000014e+00	-5.451747199999999911e-04	9.988349899999999781e-01	-6.864484100000000158e-03	1.018395200000000056e+00	5.934107800000000370e-03
3.295092700000000150e+02	1.008210700000000015e+00	-5.360780600000000307e-04	9.989477700000000127e-01	-6.904351700000000217e-03	1.017673800000000073e+00	5.933355199999999600e-03
3.479282499999999914e+02	1.007957100000000050e+00	-4.468466700000000170e-04	9.990934799999999782e-01	-6.914744199999999646e-03	1.016974899999999904e+00	6.061160300000000001e-03
3.673768099999999777e+02	1.007563200000000103e+00	-2.435058299999999976e-04	9.989929699999999801e-01	-6.877354999999999927e-03	1.016446100000000019e+00	6.360471599999999691e-03
3.879125099999999975e+02	1.007114999999999982e+00	1.565944800000000051e-04	9.986940199999999601e-01	-6.810220700000000314e-03	1.015919299999999970e+00	7.136739399999999720e-03
4.095961199999999849e+02	1.008826000000000001e+00	1.923885400000000098e-03	9.995111700000000043e-01	-5.742263499999999792e-03	1.018468600000000057e+00	9.553539499999999518e-03
4.324918000000000120e+02	1.006853900000000079e+00	1.851905899999999917e-03	9.980959200000000253e-01	-6.504136199999999840e-03	1.015757699999999986e+00	1.026019300000000078e-02
4.566673099999999863e+02	1.008158899999999969e+00	4.200735700000000385e-03	9.985445299999999857e-01	-5.470791600000000227e-03	1.018083999999999989e+00	1.383929899999999935e-02
4.821941899999999919e+02	1.011868999999999907e+00	1.168536599999999955e-03	1.000967399999999952e+00	-6.395790000000000156e-03	1.023072500000000051e+00	8.881528899999999518e-03
5.091479699999999866e+02	1.010150499999999951e+00	2.031743500000000088e-03	9.997897399999999823e-01	-6.752439399999999974e-03	1.020975200000000083e+00	1.089128500000000055e-02
5.376084299999999985e+02	1.012180899999999939e+00	2.491231699999999806e-03	1.000531499999999907e+00	-6.595360100000000232e-03	1.024289400000000017e+00	1.180103100000000002e-02
5.676597699999999804e+02	1.010111500000000051e+00	6.421063999999999548e-04	9.994663700000000484e-01	-8.499399700000000168e-03	1.021168199999999970e+00	9.997930199999999559e-03
5.993909200000000510e+02	1.009683499999999956e+00	1.748149799999999896e-03	9.987332100000000379e-01	-8.643495899999999177e-03	1.021169200000000110e+00	1.221735600000000040e-02
6.328957900000000336e+02	1.010331400000000102e+00	2.308988100000000133e-03	9.987722700000000176e-01	-8.780229900000000379e-03	1.022581900000000044e+00	1.353184099999999931e-02
6.682735300000000507e+02	1.011159499999999989e+00	2.253586900000000004e-03	9.989514499999999630e-01	-9.037964199999999962e-03	1.024100400000000022e+00	1.382546699999999927e-02
7.056288100000000441e+02	1.011744699999999941e+00	1.823346599999999982e-03	9.990522099999999961e-01	-9.709466099999999530e-03	1.025164600000000092e+00	1.347910599999999938e-02
7.450721899999999778e+02	1.012046100000000060e+00	1.229532200000000046e-03	9.989798500000000026e-01	-1.047223199999999972e-02	1.025606199999999912e+00	1.307775299999999925e-02
7.867203799999999774e+02	1.012076500000000046e+00	6.964724700000000284e-04	9.988536000000000081e-01	-1.120465600000000034e-02	1.025786499999999934e+00	1.276961100000000016e-02
8.306966200000000526e+02	1.012033299999999914e+00	3.746516700000000213e-04	9.986289600000000100e-01	-1.187059600000000062e-02	1.025823399999999941e+00	1.246847300000000075e-02
8.771310700000000224e+02	1.012018499999999932e+00	1.631784100000000036e-04	9.983815099999999720e-01	-1.238995000000000027e-02	1.025934300000000077e+00	1.246102600000000005e-02
9.261611100000000079e+02	1.012137000000000064e+00	3.145049899999999705e-05	9.982859499999999775e-01	-1.295630300000000061e-02	1.026250600000000013e+00	1.265116399999999947e-02
9.779318399999999656e+02	1.012225200000000047e+00	-4.045218099999999873e-04	9.981757199999999886e-01	-1.353670199999999942e-02	1.026437899999999903e+00	1.245695100000000083e-02
1.032596500000000106e+03	1.012309300000000079e+00	-7.914347799999999584e-04	9.980326699999999551e-01	-1.405625700000000082e-02	1.026691299999999973e+00	1.225959499999999987e-02
1.090316700000000083e+03	1.012363499999999972e+00	-1.219565799999999985e-03	9.978888299999999489e-01	-1.469860800000000016e-02	1.027048799999999984e+00	1.200275299999999969e-02
1.151263500000000022e+03	1.012412799999999891e+00	-1.707369700000000053e-03	9.977222799999999614e-01	-1.545770999999999951e-02	1.027353500000000031e+00	1.184869900000000073e-02
1.215616999999999962e+03	1.012415899999999924e+00	-2.247477299999999997e-03	9.976200100000000015e-01	-1.614444400000000085e-02	1.027601900000000068e+00	1.152788599999999934e-02
1.283567800000000034e+03	1.012402500000000094e+00	-2.692457300000000199e-03	9.974503900000000201e-01	-1.699343400000000170e-02	1.027835000000000054e+00	1.127601699999999929e-02
1.355317000000000007e+03	1.012440999999999924e+00	-3.350901199999999948e-03	9.973112400000000433e-01	-1.793119899999999836e-02	1.028287399999999963e+00	1.117199299999999985e-02
1.431076700000000073e+03	1.012610100000000068e+00	-3.923956600000000350e-03	9.970427699999999671e-01	-1.883938900000000152e-02	1.028784600000000049e+00	1.098314100000000008e-02
1.511071300000000065e+03	1.012823800000000052e+00	-4.563672199999999589e-03	9.968573699999999649e-01	-1.986915200000000103e-02	1.029347000000000012e+00	1.080369599999999979e-02
1.595537499999999909e+03	1.012992499999999962e+00	-5.139257099999999974e-03	9.966629399999999972e-01	-2.106092400000000170e-02	1.029969399999999924e+00	1.084367500000000054e-02
1.684725200000000086e+03	1.013197899999999985e+00	-5.811026399999999655e-03	9.966593700000000444e-01	-2.197844300000000028e-02	1.030592799999999976e+00	1.052921499999999976e-02
1.778898200000000088e+03	1.013505899999999960e+00	-6.555117400000000198e-03	9.965489299999999995e-01	-2.330640700000000121e-02	1.031363299999999983e+00	1.039137400000000010e-02
1.878335399999999936e+03	1.013814599999999899e+00	-7.167773100000000147e-03	9.964579900000000157e-01	-2.463379300000000105e-02	1.032395900000000033e+00	1.037897399999999914e-02
1.983330999999999904e+03	1.014156800000000080e+00	-7.842971799999999202e-03	9.964861799999999992e-01	-2.589659199999999953e-02	1.033271700000000015e+00	1.010704400000000079e-02
2.094195600000000013e+03	1.014710800000000024e+00	-8.536109400000000194e-03	9.964937099999999770e-01	-2.721787200000000059e-02	1.034203999999999901e+00	9.908825799999999850e-03
