#Frequency	Median Mag	Phase (Rad)	-1 Sigma Mag	-1 Sigma Phase	+1 Sigma Mag	+1 Sigma Phase
5.000000000000000000e+00	1.042175199999999968e+00	-1.312964000000000075e-01	7.466977200000000092e-01	-4.176322299999999932e-01	1.355885800000000030e+00	1.296932299999999927e-01
5.279491000000000156e+00	1.051869399999999954e+00	-1.322726999999999931e-01	7.803039200000000397e-01	-3.975031800000000115e-01	1.335716399999999915e+00	1.115138799999999958e-01
5.574605000000000032e+00	1.060052599999999901e+00	-1.314364899999999892e-01	8.148835700000000015e-01	-3.756707200000000135e-01	1.314321199999999967e+00	9.300298699999999530e-02
5.886215299999999928e+00	1.066354999999999942e+00	-1.320568400000000087e-01	8.412079900000000166e-01	-3.552002799999999794e-01	1.291813700000000065e+00	7.442877900000000047e-02
6.215244099999999605e+00	1.068624000000000018e+00	-1.315778900000000029e-01	8.655177099999999957e-01	-3.350053199999999953e-01	1.270877299999999988e+00	5.878999499999999767e-02
6.562665100000000251e+00	1.067442900000000083e+00	-1.284460299999999888e-01	8.866846299999999736e-01	-3.138499200000000044e-01	1.252187399999999950e+00	4.235412399999999994e-02
6.929506199999999616e+00	1.065972799999999943e+00	-1.236738899999999947e-01	9.018785499999999455e-01	-2.910048499999999816e-01	1.231843500000000091e+00	2.947819900000000007e-02
7.316853100000000332e+00	1.060334499999999958e+00	-1.171378200000000036e-01	9.113366400000000311e-01	-2.657239599999999813e-01	1.212428199999999956e+00	2.033072500000000088e-02
7.725851999999999720e+00	1.053944999999999910e+00	-1.086061700000000019e-01	9.174665600000000421e-01	-2.399320600000000026e-01	1.191647600000000029e+00	1.371714400000000056e-02
8.157713100000000495e+00	1.045398599999999956e+00	-9.840402299999999325e-02	9.219918099999999672e-01	-2.140898199999999862e-01	1.172594600000000042e+00	1.018611699999999974e-02
8.613714599999999777e+00	1.037233199999999966e+00	-8.705754999999999744e-02	9.246857200000000443e-01	-1.873694300000000035e-01	1.154444599999999932e+00	7.575940800000000031e-03
9.095205699999999283e+00	1.029665999999999970e+00	-7.500396500000000577e-02	9.277930599999999473e-01	-1.608104900000000004e-01	1.136014599999999986e+00	6.818856400000000012e-03
9.603611199999999570e+00	1.023110200000000081e+00	-6.237472599999999839e-02	9.300168800000000457e-01	-1.345416600000000074e-01	1.119750900000000104e+00	7.166991999999999634e-03
1.014043599999999934e+01	1.017390299999999970e+00	-4.985840899999999937e-02	9.331868399999999619e-01	-1.101296900000000023e-01	1.104086799999999924e+00	8.709088900000000119e-03
1.070726799999999912e+01	1.011973000000000011e+00	-3.872174099999999702e-02	9.365698999999999552e-01	-8.889598099999999892e-02	1.089723100000000056e+00	9.501153700000000701e-03
1.130578500000000020e+01	1.007133400000000067e+00	-2.888601799999999942e-02	9.403355300000000305e-01	-6.983385300000000129e-02	1.076274600000000081e+00	1.081063200000000057e-02
1.193775800000000054e+01	1.003056900000000029e+00	-2.049486000000000016e-02	9.448597899999999772e-01	-5.286440700000000215e-02	1.063009899999999952e+00	1.159531599999999961e-02
1.260505700000000040e+01	1.000218300000000005e+00	-1.373626000000000014e-02	9.507326699999999464e-01	-3.903531100000000309e-02	1.051739100000000038e+00	1.187948599999999987e-02
1.330965699999999963e+01	9.984329199999999460e-01	-8.322117500000000140e-03	9.562362500000000098e-01	-2.778730399999999878e-02	1.041258599999999923e+00	1.149656400000000078e-02
1.405364299999999922e+01	9.972013800000000261e-01	-4.446880599999999614e-03	9.618101000000000012e-01	-1.946497499999999894e-02	1.033336999999999950e+00	1.084290899999999953e-02
1.483921600000000041e+01	9.965803399999999534e-01	-2.034069800000000167e-03	9.659235499999999641e-01	-1.391219900000000009e-02	1.027663599999999899e+00	1.001892599999999918e-02
1.566870100000000043e+01	9.959314599999999906e-01	-7.138647699999999940e-04	9.681991300000000189e-01	-1.094198400000000009e-02	1.024468300000000109e+00	9.455250099999999713e-03
1.654455300000000051e+01	9.960051100000000268e-01	-4.483481399999999801e-04	9.678139999999999521e-01	-1.006629099999999978e-02	1.024462299999999937e+00	9.486582599999999685e-03
1.746936399999999878e+01	9.954679800000000300e-01	-4.566797199999999787e-04	9.647692300000000332e-01	-1.040031599999999973e-02	1.027121399999999962e+00	9.600347599999999731e-03
1.844586999999999932e+01	9.955070000000000308e-01	-7.674065499999999616e-04	9.602488700000000321e-01	-1.126911799999999984e-02	1.031406599999999951e+00	9.980828199999999817e-03
1.947696099999999930e+01	9.954175699999999738e-01	-8.268303999999999975e-04	9.558646200000000537e-01	-1.240825100000000035e-02	1.036459999999999937e+00	1.071332200000000082e-02
2.056568800000000152e+01	9.953725399999999723e-01	-7.140905599999999463e-04	9.510948799999999759e-01	-1.364237800000000014e-02	1.040875400000000006e+00	1.205499200000000048e-02
2.171527199999999880e+01	9.952774699999999974e-01	-3.404938099999999966e-04	9.474353699999999989e-01	-1.495716300000000075e-02	1.044901300000000033e+00	1.419795700000000063e-02
2.292911700000000152e+01	9.953788700000000267e-01	1.401780299999999871e-04	9.439709499999999753e-01	-1.691267700000000096e-02	1.048595500000000014e+00	1.716161700000000054e-02
2.421081300000000169e+01	9.958809100000000081e-01	7.657135999999999934e-04	9.413628200000000446e-01	-1.925183700000000081e-02	1.051767200000000013e+00	2.113536699999999866e-02
2.556415399999999849e+01	9.974504400000000492e-01	1.445306200000000003e-03	9.408266499999999866e-01	-2.216279999999999986e-02	1.054809099999999944e+00	2.612543399999999946e-02
2.699314400000000091e+01	9.986863499999999449e-01	1.993487099999999984e-03	9.416476299999999577e-01	-2.607508999999999869e-02	1.056969400000000059e+00	3.172520399999999990e-02
2.850201200000000057e+01	1.000630200000000025e+00	2.374820799999999982e-03	9.444412399999999597e-01	-3.073196599999999945e-02	1.057723399999999980e+00	3.846895499999999912e-02
3.009522300000000072e+01	1.002934299999999945e+00	1.655109899999999967e-03	9.482147699999999846e-01	-3.764460399999999818e-02	1.058047500000000030e+00	4.562312400000000101e-02
3.177749100000000126e+01	1.004853900000000078e+00	8.524020499999999511e-04	9.523144000000000053e-01	-4.593298199999999720e-02	1.057987599999999917e+00	5.309149600000000191e-02
3.355379599999999840e+01	1.007445200000000041e+00	-8.951354400000000044e-04	9.569792200000000193e-01	-5.793964399999999848e-02	1.058078800000000097e+00	6.109198400000000195e-02
3.542939200000000000e+01	1.008093899999999987e+00	-3.292740499999999900e-03	9.591712300000000413e-01	-7.367399700000000495e-02	1.059857100000000107e+00	7.031842400000000437e-02
3.740983200000000153e+01	1.009101100000000084e+00	-6.311941500000000337e-03	9.585464099999999599e-01	-9.357675000000000021e-02	1.062643199999999899e+00	8.227478800000000148e-02
3.950097399999999936e+01	1.008752499999999941e+00	-8.184583000000000483e-03	9.511977499999999530e-01	-1.121367900000000001e-01	1.067858900000000055e+00	9.244378300000000159e-02
4.170900699999999972e+01	1.003461399999999948e+00	-9.558310599999999754e-03	9.303651600000000244e-01	-1.198772899999999975e-01	1.080073700000000025e+00	9.372909699999999733e-02
4.404046499999999753e+01	9.983328000000000202e-01	-6.090118700000000072e-03	9.079936800000000252e-01	-1.016926499999999955e-01	1.093562799999999946e+00	7.867820500000000106e-02
4.650224699999999700e+01	9.965995199999999610e-01	-2.808954399999999928e-03	9.014857400000000354e-01	-7.430286599999999519e-02	1.094588700000000081e+00	6.192144900000000340e-02
4.910163899999999870e+01	9.981197000000000541e-01	-2.213321500000000035e-03	9.115375399999999795e-01	-5.550470799999999982e-02	1.085574400000000050e+00	5.142380800000000141e-02
5.184633199999999675e+01	1.000328099999999942e+00	-2.148600400000000212e-03	9.269902500000000156e-01	-4.958575199999999683e-02	1.073244000000000087e+00	4.718875200000000047e-02
5.474444799999999844e+01	1.001607200000000031e+00	-2.566899100000000124e-03	9.419573900000000055e-01	-4.784135500000000207e-02	1.060966199999999970e+00	4.425738399999999684e-02
5.780456399999999917e+01	1.002649399999999913e+00	-3.980603200000000161e-03	9.536552099999999754e-01	-4.744478299999999732e-02	1.050722699999999898e+00	4.137748000000000120e-02
6.103573500000000251e+01	1.002550700000000017e+00	-5.306647400000000410e-03	9.630470399999999653e-01	-4.657110200000000311e-02	1.041818200000000028e+00	3.902093499999999965e-02
6.444752200000000641e+01	1.002552799999999911e+00	-6.231120899999999588e-03	9.695870199999999661e-01	-4.624785599999999691e-02	1.035132600000000069e+00	3.627586299999999847e-02
6.805002199999999846e+01	1.002123700000000062e+00	-6.963388299999999712e-03	9.748776200000000003e-01	-4.521963400000000161e-02	1.028536700000000081e+00	3.379126400000000141e-02
7.185389600000000598e+01	1.001651400000000081e+00	-7.309495800000000328e-03	9.787993900000000469e-01	-4.416761799999999877e-02	1.023913000000000073e+00	3.194520599999999683e-02
7.587039900000000614e+01	1.001262899999999956e+00	-7.575125200000000329e-03	9.814743000000000217e-01	-4.309088700000000133e-02	1.019868999999999915e+00	3.012033799999999997e-02
8.011141700000000299e+01	1.000649099999999958e+00	-7.383008499999999669e-03	9.836581199999999692e-01	-4.212675300000000289e-02	1.016450899999999935e+00	2.884088599999999961e-02
8.458950099999999850e+01	1.000190300000000088e+00	-6.596712499999999972e-03	9.852132999999999585e-01	-4.095629199999999831e-02	1.014024700000000001e+00	2.813213999999999992e-02
8.931790100000000621e+01	9.996985499999999636e-01	-5.981892299999999607e-03	9.862167400000000361e-01	-3.970205000000000262e-02	1.012254299999999940e+00	2.721584000000000156e-02
9.431060999999999694e+01	9.993161200000000299e-01	-5.480611199999999884e-03	9.866436600000000334e-01	-3.832101400000000047e-02	1.011354800000000109e+00	2.648170299999999880e-02
9.958240299999999934e+01	9.988166899999999515e-01	-5.157150200000000170e-03	9.863746100000000405e-01	-3.670076199999999789e-02	1.011023100000000063e+00	2.629480400000000148e-02
1.051488800000000055e+02	9.984799399999999547e-01	-4.209768299999999686e-03	9.857004799999999900e-01	-3.545008399999999976e-02	1.011075799999999969e+00	2.601144700000000004e-02
1.110265100000000018e+02	9.981640099999999904e-01	-3.822311300000000214e-03	9.847532300000000349e-01	-3.399950899999999721e-02	1.011602899999999972e+00	2.565231499999999845e-02
1.172326900000000052e+02	9.978431899999999910e-01	-3.290432900000000126e-03	9.833470800000000400e-01	-3.291367099999999851e-02	1.012307999999999986e+00	2.528122699999999987e-02
1.237857900000000058e+02	9.976311900000000010e-01	-3.082142899999999828e-03	9.817451099999999764e-01	-3.182740399999999664e-02	1.013214499999999907e+00	2.516364399999999890e-02
1.307051899999999875e+02	9.971902499999999447e-01	-2.467324999999999813e-03	9.799421999999999855e-01	-3.056828300000000165e-02	1.014287299999999892e+00	2.499556699999999979e-02
1.380113800000000026e+02	9.966799600000000314e-01	-1.853757099999999965e-03	9.777854799999999846e-01	-2.915616500000000125e-02	1.015431699999999937e+00	2.506593600000000047e-02
1.457259599999999864e+02	9.962318900000000088e-01	-1.211330199999999897e-03	9.756913699999999467e-01	-2.776850599999999836e-02	1.016490399999999905e+00	2.461589900000000011e-02
1.538717800000000011e+02	9.952383200000000096e-01	-2.020620000000000044e-04	9.735802000000000067e-01	-2.593725499999999934e-02	1.017012900000000108e+00	2.438547400000000073e-02
1.624729399999999941e+02	9.946578700000000550e-01	6.890535200000000001e-04	9.712947499999999845e-01	-2.340599700000000130e-02	1.017977700000000096e+00	2.409346899999999930e-02
1.715548799999999972e+02	9.941016700000000483e-01	2.001443500000000056e-03	9.693796500000000371e-01	-2.039526300000000028e-02	1.018816399999999955e+00	2.371491200000000119e-02
1.811444899999999905e+02	9.938927400000000523e-01	3.462395200000000124e-03	9.677733699999999661e-01	-1.667598400000000133e-02	1.020251500000000089e+00	2.316793600000000009e-02
1.912701399999999978e+02	9.944537799999999539e-01	4.755102500000000371e-03	9.671368399999999976e-01	-1.301852700000000022e-02	1.021100399999999908e+00	2.216095599999999902e-02
2.019617900000000077e+02	9.951509499999999786e-01	5.716189200000000060e-03	9.679842499999999905e-01	-9.676865099999999373e-03	1.022001299999999890e+00	2.106643799999999983e-02
2.132510900000000049e+02	9.959591700000000047e-01	6.298586099999999716e-03	9.695114799999999811e-01	-6.996115899999999672e-03	1.022104399999999913e+00	1.944148000000000057e-02
2.251714399999999898e+02	9.968596299999999966e-01	6.507329899999999938e-03	9.716400800000000171e-01	-5.618364800000000096e-03	1.021378200000000014e+00	1.820472000000000062e-02
2.377581199999999910e+02	9.974061300000000019e-01	6.302156700000000403e-03	9.739165100000000130e-01	-5.022971999999999680e-03	1.019942099999999963e+00	1.739867700000000128e-02
2.510483700000000056e+02	9.975948399999999827e-01	5.965978900000000126e-03	9.764791400000000232e-01	-5.044383000000000374e-03	1.018248700000000007e+00	1.686855400000000088e-02
2.650815200000000118e+02	9.975043700000000291e-01	5.562476499999999963e-03	9.786886799999999775e-01	-5.399563599999999790e-03	1.016238100000000033e+00	1.646581600000000117e-02
2.798990999999999758e+02	9.974486200000000080e-01	5.060907600000000110e-03	9.811500699999999853e-01	-6.376810600000000322e-03	1.013724400000000081e+00	1.616613899999999951e-02
2.955449499999999716e+02	9.959357300000000190e-01	4.121997300000000176e-03	9.827724399999999694e-01	-1.003087199999999971e-02	1.008818900000000074e+00	1.784950299999999920e-02
3.120653800000000047e+02	9.959100899999999701e-01	5.848459099999999897e-03	9.801453900000000052e-01	-8.639153800000000383e-03	1.011802000000000090e+00	2.025098200000000070e-02
3.295092700000000150e+02	9.968646399999999685e-01	7.986760299999999535e-03	9.759841900000000292e-01	-5.365576999999999847e-03	1.018062100000000081e+00	2.115330699999999967e-02
3.479282499999999914e+02	9.976337199999999461e-01	6.829701999999999995e-03	9.803362500000000201e-01	-5.005562399999999995e-03	1.014797900000000030e+00	1.860710700000000120e-02
3.673768099999999777e+02	9.975572299999999615e-01	6.603371099999999841e-03	9.820913700000000190e-01	-5.091569199999999851e-03	1.013128299999999982e+00	1.839511099999999871e-02
3.879125099999999975e+02	9.974296799999999852e-01	6.616637400000000002e-03	9.832758999999999805e-01	-4.613985999999999608e-03	1.011585100000000015e+00	1.821410899999999916e-02
4.095961199999999849e+02	9.974225799999999476e-01	6.909767100000000287e-03	9.842572499999999724e-01	-3.959115200000000098e-03	1.010380300000000009e+00	1.818591599999999989e-02
4.324918000000000120e+02	9.969107499999999566e-01	7.410469599999999595e-03	9.844974100000000172e-01	-4.838296199999999811e-03	1.009481300000000026e+00	1.994253799999999924e-02
4.566673099999999863e+02	9.971018099999999773e-01	7.125154399999999999e-03	9.853133899999999556e-01	-4.618710100000000297e-03	1.008607500000000101e+00	1.904611399999999941e-02
4.821941899999999919e+02	9.982134000000000285e-01	8.898468200000000591e-03	9.848549599999999460e-01	-1.905432000000000089e-03	1.011761899999999992e+00	1.965291300000000102e-02
5.091479699999999866e+02	9.983034200000000524e-01	8.787321600000000052e-03	9.861931299999999734e-01	-2.020034100000000013e-03	1.010455899999999962e+00	1.926091699999999893e-02
5.376084299999999985e+02	9.982074800000000359e-01	9.115016700000000763e-03	9.868139599999999900e-01	-2.170410399999999924e-03	1.009932300000000005e+00	1.979181600000000027e-02
5.676597699999999804e+02	9.996730000000000338e-01	9.025333700000000639e-03	9.876213700000000539e-01	-6.894209000000000318e-04	1.011421200000000020e+00	1.838657299999999981e-02
5.993909200000000510e+02	9.997830300000000170e-01	8.791070999999999261e-03	9.884150000000000436e-01	-9.642828700000000012e-04	1.011004999999999932e+00	1.828415200000000143e-02
6.328957900000000336e+02	9.999591199999999791e-01	8.846158899999999672e-03	9.886060899999999929e-01	-1.263781399999999982e-03	1.011172100000000018e+00	1.879639899999999836e-02
6.682735300000000507e+02	1.000359599999999904e+00	8.952772399999999603e-03	9.888280299999999690e-01	-1.637352099999999939e-03	1.011732899999999935e+00	1.920268699999999953e-02
7.056288100000000441e+02	1.000831900000000108e+00	8.780143400000000806e-03	9.889974799999999844e-01	-2.040190099999999920e-03	1.012516200000000088e+00	1.948923199999999870e-02
7.450721899999999778e+02	1.001362599999999992e+00	8.619714400000000679e-03	9.892848100000000144e-01	-2.671091100000000038e-03	1.013327099999999925e+00	1.967644199999999885e-02
7.867203799999999774e+02	1.002028099999999977e+00	8.362614900000000726e-03	9.892907199999999568e-01	-3.392488400000000064e-03	1.014324000000000003e+00	1.977442000000000089e-02
8.306966200000000526e+02	1.002435900000000046e+00	8.103887100000000190e-03	9.891950499999999646e-01	-4.195048199999999901e-03	1.015211499999999933e+00	1.973748100000000116e-02
8.771310700000000224e+02	1.002945999999999893e+00	7.815481699999999796e-03	9.892310100000000217e-01	-4.978228900000000214e-03	1.016053400000000106e+00	1.961752500000000024e-02
9.261611100000000079e+02	1.003396399999999966e+00	7.483994899999999763e-03	9.891687099999999511e-01	-5.552546799999999623e-03	1.016918800000000012e+00	1.958084200000000108e-02
9.779318399999999656e+02	1.003764700000000065e+00	7.183143599999999677e-03	9.891808500000000004e-01	-6.426308900000000240e-03	1.017431900000000056e+00	1.964519899999999861e-02
1.032596500000000106e+03	1.004072000000000076e+00	6.750934099999999702e-03	9.891723300000000441e-01	-7.230839499999999927e-03	1.018085700000000093e+00	1.978820099999999832e-02
1.090316700000000083e+03	1.004377000000000075e+00	6.432387599999999685e-03	9.892677800000000410e-01	-7.905388100000000640e-03	1.018609400000000109e+00	1.974013200000000051e-02
1.151263500000000022e+03	1.004499000000000031e+00	6.194232200000000105e-03	9.894994400000000079e-01	-8.495008999999999547e-03	1.019102399999999964e+00	1.991873799999999833e-02
1.215616999999999962e+03	1.004693300000000011e+00	5.966130899999999918e-03	9.893537000000000026e-01	-8.996787399999999282e-03	1.019646000000000052e+00	2.023892700000000031e-02
1.283567800000000034e+03	1.004637599999999908e+00	5.938024899999999953e-03	9.892728200000000527e-01	-9.379287599999999378e-03	1.019871100000000030e+00	2.047017199999999829e-02
1.355317000000000007e+03	1.004347499999999949e+00	5.933395900000000035e-03	9.889858999999999734e-01	-9.714790100000000525e-03	1.020003299999999946e+00	2.073111199999999946e-02
1.431076700000000073e+03	1.004062299999999963e+00	5.938156099999999590e-03	9.885868599999999562e-01	-1.005401000000000038e-02	1.020028500000000005e+00	2.119479399999999944e-02
1.511071300000000065e+03	1.003520799999999991e+00	6.050143600000000219e-03	9.878804900000000000e-01	-1.024342500000000045e-02	1.020001399999999947e+00	2.175639399999999835e-02
1.595537499999999909e+03	1.002955700000000006e+00	6.400804099999999990e-03	9.869515700000000002e-01	-1.033262499999999980e-02	1.019803299999999968e+00	2.248847600000000030e-02
1.684725200000000086e+03	1.002264000000000044e+00	6.847667099999999590e-03	9.857422399999999918e-01	-1.057451899999999924e-02	1.019498000000000015e+00	2.344838499999999867e-02
1.778898200000000088e+03	1.001256799999999947e+00	7.646475199999999868e-03	9.841756200000000288e-01	-1.077444600000000002e-02	1.019051200000000046e+00	2.480692199999999861e-02
1.878335399999999936e+03	9.999774299999999450e-01	8.138065300000000418e-03	9.821714400000000067e-01	-1.110725899999999954e-02	1.018299300000000018e+00	2.605899000000000063e-02
1.983330999999999904e+03	9.984636300000000464e-01	8.679418100000000844e-03	9.800976799999999711e-01	-1.117213300000000076e-02	1.017551400000000106e+00	2.758837999999999915e-02
2.094195600000000013e+03	9.969648599999999528e-01	9.331745699999999602e-03	9.777972499999999512e-01	-1.122870299999999960e-02	1.016343299999999950e+00	2.924751199999999982e-02
