#Frequency	Median Mag	Phase (Rad)	-1 Sigma Mag	-1 Sigma Phase	+1 Sigma Mag	+1 Sigma Phase
5.000000000000000000e+00	9.839778599999999820e-01	-5.635785800000000199e-03	9.229593600000000064e-01	-5.570436000000000137e-02	1.043657400000000068e+00	4.461030600000000235e-02
5.279491000000000156e+00	9.832571599999999634e-01	-5.362434099999999725e-03	9.264989599999999825e-01	-5.379226499999999883e-02	1.039518799999999965e+00	4.306713399999999997e-02
5.574605000000000032e+00	9.825940300000000072e-01	-5.199813799999999583e-03	9.292273699999999970e-01	-5.210541700000000109e-02	1.035969600000000046e+00	4.177320200000000233e-02
5.886215299999999928e+00	9.823737399999999953e-01	-5.002314600000000097e-03	9.315866999999999898e-01	-5.023000300000000223e-02	1.032671600000000023e+00	4.072619100000000186e-02
6.215244099999999605e+00	9.818691800000000081e-01	-4.539871099999999611e-03	9.333687000000000511e-01	-4.828907100000000285e-02	1.030138699999999963e+00	3.931167199999999889e-02
6.562665100000000251e+00	9.816541800000000428e-01	-4.078443799999999578e-03	9.352096399999999532e-01	-4.634145099999999878e-02	1.027985600000000055e+00	3.829327600000000109e-02
6.929506199999999616e+00	9.816239100000000439e-01	-3.221884899999999819e-03	9.367616899999999802e-01	-4.420507600000000287e-02	1.026544899999999982e+00	3.716394499999999684e-02
7.316853100000000332e+00	9.815080400000000260e-01	-2.464202300000000075e-03	9.378880499999999731e-01	-4.153191600000000205e-02	1.025541500000000106e+00	3.578576399999999769e-02
7.725851999999999720e+00	9.819527000000000116e-01	-1.669289100000000050e-03	9.387918600000000335e-01	-3.862891899999999767e-02	1.025144300000000008e+00	3.434437900000000127e-02
8.157713100000000495e+00	9.823159799999999775e-01	-8.340672900000000020e-04	9.401562999999999448e-01	-3.551680799999999694e-02	1.025135399999999919e+00	3.285158600000000206e-02
8.613714599999999777e+00	9.830617299999999670e-01	-9.719429299999999964e-05	9.411639299999999819e-01	-3.218754299999999902e-02	1.025069400000000019e+00	3.123477399999999987e-02
9.095205699999999283e+00	9.837657899999999733e-01	8.280666800000000168e-04	9.423554800000000231e-01	-2.882350800000000116e-02	1.025149499999999936e+00	2.927317499999999850e-02
9.603611199999999570e+00	9.847538500000000417e-01	1.303515000000000099e-03	9.438327899999999770e-01	-2.533098500000000031e-02	1.025502799999999937e+00	2.711948900000000010e-02
1.014043599999999934e+01	9.858372600000000485e-01	1.758887599999999982e-03	9.454686199999999818e-01	-2.210756800000000105e-02	1.025698100000000057e+00	2.508966699999999952e-02
1.070726799999999912e+01	9.871156399999999609e-01	2.246200099999999880e-03	9.470193700000000270e-01	-1.889463900000000127e-02	1.025726399999999927e+00	2.296017599999999881e-02
1.130578500000000020e+01	9.882132200000000033e-01	2.532501600000000141e-03	9.490352899999999758e-01	-1.603130399999999969e-02	1.025704500000000019e+00	2.081405600000000092e-02
1.193775800000000054e+01	9.892114100000000132e-01	2.818533600000000007e-03	9.514101499999999545e-01	-1.365017999999999961e-02	1.025794899999999954e+00	1.905798200000000109e-02
1.260505700000000040e+01	9.902120199999999706e-01	3.033253200000000146e-03	9.536610199999999704e-01	-1.145426100000000030e-02	1.025709699999999946e+00	1.740108199999999827e-02
1.330965699999999963e+01	9.911628599999999789e-01	3.085571200000000128e-03	9.558679599999999610e-01	-9.819612099999999733e-03	1.025495400000000057e+00	1.575258200000000108e-02
1.405364299999999922e+01	9.920915099999999542e-01	3.040905300000000099e-03	9.582367699999999600e-01	-8.411566299999999330e-03	1.025129299999999910e+00	1.430867800000000002e-02
1.483921600000000041e+01	9.932226499999999847e-01	3.008154600000000067e-03	9.603082400000000352e-01	-7.514006900000000030e-03	1.025041300000000044e+00	1.335225699999999932e-02
1.566870100000000043e+01	9.941039699999999479e-01	2.828039899999999947e-03	9.622999700000000045e-01	-7.122044600000000322e-03	1.024797100000000016e+00	1.284472600000000075e-02
1.654455300000000051e+01	9.948612300000000408e-01	2.671795700000000051e-03	9.642129600000000078e-01	-7.201170199999999862e-03	1.024876200000000015e+00	1.255429999999999914e-02
1.746936399999999878e+01	9.956453299999999951e-01	2.515518999999999915e-03	9.659959900000000266e-01	-7.703401700000000150e-03	1.024825300000000050e+00	1.255395899999999995e-02
1.844586999999999932e+01	9.965334200000000031e-01	2.174363600000000108e-03	9.674857399999999830e-01	-8.671581100000000722e-03	1.024580599999999952e+00	1.298993399999999986e-02
1.947696099999999930e+01	9.970995599999999959e-01	1.936343099999999909e-03	9.688554499999999514e-01	-1.003562700000000009e-02	1.024812499999999904e+00	1.380760800000000073e-02
2.056568800000000152e+01	9.976165900000000253e-01	1.610859000000000076e-03	9.701201900000000489e-01	-1.164767300000000075e-02	1.025112999999999941e+00	1.486385500000000047e-02
2.171527199999999880e+01	9.982822599999999769e-01	1.148977600000000016e-03	9.713543100000000541e-01	-1.385337600000000058e-02	1.025562099999999921e+00	1.653605899999999879e-02
2.292911700000000152e+01	9.988463600000000442e-01	8.012080799999999822e-04	9.722956099999999768e-01	-1.629145499999999983e-02	1.025776400000000033e+00	1.850358400000000000e-02
2.421081300000000169e+01	9.991607099999999519e-01	4.351280499999999750e-04	9.729269400000000179e-01	-1.913981899999999889e-02	1.026228799999999941e+00	2.061995299999999989e-02
2.556415399999999849e+01	9.998410199999999692e-01	-6.614170600000000041e-05	9.736324299999999932e-01	-2.258818400000000073e-02	1.026520499999999947e+00	2.323588399999999832e-02
2.699314400000000091e+01	1.000336399999999903e+00	-3.853142500000000218e-04	9.743944199999999833e-01	-2.645563800000000007e-02	1.026890499999999928e+00	2.633681100000000164e-02
2.850201200000000057e+01	1.000698400000000099e+00	-7.499287200000000165e-04	9.753106499999999457e-01	-3.087537400000000057e-02	1.026941499999999952e+00	2.951022699999999999e-02
3.009522300000000072e+01	1.001099200000000078e+00	-1.169010100000000092e-03	9.762595499999999760e-01	-3.566194200000000203e-02	1.026667199999999891e+00	3.319656499999999733e-02
3.177749100000000126e+01	1.001558100000000007e+00	-1.795916299999999934e-03	9.771032800000000185e-01	-4.072039799999999793e-02	1.026226700000000047e+00	3.678871999999999698e-02
3.355379599999999840e+01	1.001815799999999923e+00	-2.427913099999999894e-03	9.780644499999999741e-01	-4.629030499999999687e-02	1.025891499999999956e+00	4.057434199999999935e-02
3.542939200000000000e+01	1.002083199999999952e+00	-3.229103699999999900e-03	9.770897800000000188e-01	-5.136092899999999961e-02	1.026742499999999891e+00	4.368367399999999873e-02
3.740983200000000153e+01	1.002075100000000107e+00	-3.830081099999999971e-03	9.744038400000000211e-01	-5.530429600000000279e-02	1.029056500000000041e+00	4.595264599999999977e-02
3.950097399999999936e+01	1.002037899999999926e+00	-4.279327500000000041e-03	9.686617600000000383e-01	-5.752770900000000326e-02	1.033711000000000046e+00	4.629285500000000081e-02
4.170900699999999972e+01	1.000990000000000046e+00	-4.873385400000000180e-03	9.601941299999999790e-01	-5.749591700000000055e-02	1.039830699999999997e+00	4.464800900000000239e-02
4.404046499999999753e+01	9.997641900000000525e-01	-4.831198299999999758e-03	9.509859099999999899e-01	-5.343858900000000162e-02	1.047190599999999971e+00	4.022283599999999792e-02
4.650224699999999700e+01	9.987551300000000465e-01	-4.258536900000000139e-03	9.432750500000000038e-01	-4.650123099999999704e-02	1.052683700000000000e+00	3.354329699999999970e-02
4.910163899999999870e+01	9.979062100000000157e-01	-3.941950399999999757e-03	9.387840400000000418e-01	-3.852194300000000293e-02	1.055569100000000038e+00	2.743766599999999944e-02
5.184633199999999675e+01	9.974698800000000309e-01	-3.626614800000000065e-03	9.380469500000000460e-01	-3.148295799999999839e-02	1.055588799999999994e+00	2.283392399999999850e-02
5.474444799999999844e+01	9.971615700000000526e-01	-3.607215500000000158e-03	9.401535100000000256e-01	-2.807396200000000092e-02	1.052963099999999930e+00	2.228934700000000102e-02
5.780456399999999917e+01	9.968029400000000262e-01	-2.991724099999999893e-03	9.445943599999999662e-01	-2.857303300000000115e-02	1.048275199999999963e+00	2.505295100000000039e-02
6.103573500000000251e+01	9.964758700000000413e-01	-2.337646300000000184e-03	9.500576800000000155e-01	-3.017383200000000112e-02	1.042925700000000067e+00	2.801949100000000054e-02
6.444752200000000641e+01	9.965509299999999460e-01	-1.844624599999999991e-03	9.556342399999999682e-01	-3.177308699999999847e-02	1.037417800000000057e+00	3.062580700000000142e-02
6.805002199999999846e+01	9.967238699999999563e-01	-1.316261100000000028e-03	9.612410999999999595e-01	-3.284305800000000136e-02	1.031709800000000010e+00	3.253688799999999992e-02
7.185389600000000598e+01	9.965535899999999891e-01	-1.020285400000000035e-03	9.667809099999999933e-01	-3.363123800000000080e-02	1.026942299999999975e+00	3.379975300000000182e-02
7.587039900000000614e+01	9.967105299999999835e-01	-8.180695399999999467e-04	9.715076999999999741e-01	-3.388458200000000337e-02	1.022510199999999925e+00	3.430715899999999680e-02
8.011141700000000299e+01	9.968293700000000479e-01	-4.663876000000000068e-04	9.756256700000000004e-01	-3.392725800000000180e-02	1.018705500000000042e+00	3.452068600000000181e-02
8.458950099999999850e+01	9.969068500000000110e-01	-7.526690300000000425e-05	9.790802699999999748e-01	-3.356224900000000233e-02	1.015385999999999900e+00	3.442069400000000168e-02
8.931790100000000621e+01	9.969163899999999856e-01	1.620925800000000059e-04	9.819634000000000418e-01	-3.288887499999999797e-02	1.012506300000000081e+00	3.426001299999999888e-02
9.431060999999999694e+01	9.969824600000000148e-01	6.028674899999999798e-04	9.837036000000000113e-01	-3.219839599999999719e-02	1.010316999999999910e+00	3.382271500000000319e-02
9.958240299999999934e+01	9.967759899999999451e-01	1.020183700000000049e-03	9.848398999999999903e-01	-3.151267700000000282e-02	1.009053900000000059e+00	3.322172400000000109e-02
1.051488800000000055e+02	9.967780699999999605e-01	1.615524699999999932e-03	9.854212199999999866e-01	-3.048781700000000039e-02	1.008313800000000038e+00	3.290913899999999698e-02
1.110265100000000018e+02	9.967064100000000426e-01	1.992864500000000177e-03	9.852485399999999505e-01	-2.943864100000000150e-02	1.008233099999999993e+00	3.238283699999999765e-02
1.172326900000000052e+02	9.963729399999999847e-01	2.280930100000000058e-03	9.844135200000000419e-01	-2.797261499999999929e-02	1.008784799999999926e+00	3.194722600000000218e-02
1.237857900000000058e+02	9.962573700000000310e-01	2.977523900000000022e-03	9.832059100000000162e-01	-2.652399500000000160e-02	1.009788899999999989e+00	3.160535099999999681e-02
1.307051899999999875e+02	9.962357299999999860e-01	3.746057100000000153e-03	9.817741399999999619e-01	-2.493959000000000106e-02	1.011300499999999936e+00	3.132429199999999664e-02
1.380113800000000026e+02	9.962515899999999647e-01	4.399634300000000026e-03	9.799473800000000345e-01	-2.304006499999999846e-02	1.013189700000000082e+00	3.086777200000000165e-02
1.457259599999999864e+02	9.964313999999999671e-01	5.334608999999999705e-03	9.782267199999999940e-01	-2.064710900000000030e-02	1.015435800000000111e+00	3.012880399999999861e-02
1.538717800000000011e+02	9.967268200000000133e-01	6.007678800000000076e-03	9.764656000000000446e-01	-1.781812400000000116e-02	1.017669300000000110e+00	2.905936099999999883e-02
1.624729399999999941e+02	9.973408200000000168e-01	6.762375999999999630e-03	9.751701900000000478e-01	-1.461922899999999921e-02	1.020045599999999997e+00	2.744613200000000156e-02
1.715548799999999972e+02	9.982660700000000054e-01	7.579409500000000230e-03	9.745717799999999986e-01	-1.089109199999999979e-02	1.022150600000000020e+00	2.532306100000000088e-02
1.811444899999999905e+02	9.990963299999999769e-01	7.992017699999999503e-03	9.746952199999999733e-01	-7.324751099999999605e-03	1.023598999999999926e+00	2.281571799999999872e-02
1.912701399999999978e+02	1.000222299999999898e+00	8.120823100000000572e-03	9.762256599999999951e-01	-4.013269699999999669e-03	1.024152900000000033e+00	2.010793199999999850e-02
2.019617900000000077e+02	1.001198599999999939e+00	7.940069399999999389e-03	9.783429799999999732e-01	-1.780514599999999956e-03	1.023891200000000001e+00	1.767583600000000033e-02
2.132510900000000049e+02	1.001837599999999995e+00	7.566223799999999798e-03	9.807170499999999791e-01	-7.420357100000000289e-04	1.022761400000000043e+00	1.579446099999999922e-02
2.251714399999999898e+02	1.002244700000000099e+00	7.115886800000000359e-03	9.832757500000000039e-01	-4.016294699999999919e-04	1.021281600000000012e+00	1.452501599999999997e-02
2.377581199999999910e+02	1.002595300000000078e+00	6.716042699999999997e-03	9.854956900000000353e-01	-3.531513000000000013e-04	1.019515299999999902e+00	1.361058499999999970e-02
2.510483700000000056e+02	1.002553199999999922e+00	6.348318999999999837e-03	9.872573500000000335e-01	-5.501646800000000066e-04	1.017825399999999991e+00	1.303488099999999990e-02
2.650815200000000118e+02	1.002454100000000015e+00	6.021270500000000178e-03	9.888504200000000077e-01	-8.508801199999999933e-04	1.016153000000000084e+00	1.259674199999999931e-02
2.798990999999999758e+02	1.002111699999999939e+00	5.479903399999999647e-03	9.901978799999999747e-01	-1.382360900000000102e-03	1.014161400000000102e+00	1.212657099999999918e-02
2.955449499999999716e+02	1.000249500000000014e+00	4.643043300000000012e-03	9.896245000000000180e-01	-3.427425600000000207e-03	1.011210600000000071e+00	1.282016400000000021e-02
3.120653800000000047e+02	1.000284600000000079e+00	6.560695000000000068e-03	9.885501199999999766e-01	-2.046495299999999840e-03	1.012378699999999965e+00	1.513831199999999925e-02
3.295092700000000150e+02	1.001484599999999947e+00	8.798827400000000520e-03	9.860153099999999782e-01	1.100576100000000062e-03	1.017125899999999916e+00	1.652182099999999904e-02
3.479282499999999914e+02	1.002085300000000068e+00	7.736060900000000205e-03	9.892505700000000513e-01	6.006425300000000234e-04	1.015197200000000022e+00	1.492226399999999932e-02
3.673768099999999777e+02	1.001944600000000074e+00	7.540202900000000062e-03	9.899801299999999582e-01	2.601026800000000045e-04	1.014119200000000109e+00	1.479074000000000014e-02
3.879125099999999975e+02	1.001700899999999894e+00	7.515341499999999772e-03	9.902760699999999527e-01	2.350205999999999975e-04	1.013495800000000058e+00	1.471069300000000038e-02
4.095961199999999849e+02	1.001235600000000003e+00	7.532784600000000039e-03	9.902042399999999578e-01	3.530538200000000125e-04	1.012661999999999951e+00	1.474154899999999963e-02
4.324918000000000120e+02	1.000246399999999980e+00	8.708483499999999239e-03	9.892899800000000132e-01	3.838505200000000154e-04	1.011446800000000090e+00	1.724387900000000015e-02
4.566673099999999863e+02	1.000242999999999993e+00	8.801683500000000854e-03	9.893629099999999843e-01	6.116533200000000021e-04	1.011068599999999984e+00	1.732222699999999907e-02
4.821941899999999919e+02	1.001679200000000103e+00	1.054547999999999944e-02	9.895217400000000385e-01	2.746185099999999980e-03	1.014001900000000012e+00	1.846132400000000118e-02
5.091479699999999866e+02	1.001289600000000002e+00	1.057768000000000076e-02	9.899827500000000224e-01	2.530126800000000002e-03	1.012818500000000066e+00	1.889353699999999844e-02
5.376084299999999985e+02	1.000949099999999925e+00	1.119121200000000073e-02	9.897311300000000145e-01	2.540847599999999928e-03	1.012317899999999993e+00	2.027628000000000069e-02
5.676597699999999804e+02	1.002227900000000060e+00	1.143764400000000028e-02	9.906547100000000494e-01	3.655504999999999866e-03	1.014212899999999973e+00	1.929120700000000119e-02
5.993909200000000510e+02	1.001855600000000068e+00	1.168474299999999917e-02	9.907062199999999708e-01	3.732973699999999912e-03	1.013395400000000057e+00	1.983169599999999935e-02
6.328957900000000336e+02	1.001799499999999954e+00	1.243034999999999973e-02	9.904855399999999976e-01	3.833020300000000019e-03	1.013384099999999899e+00	2.110249399999999942e-02
6.682735300000000507e+02	1.001909099999999997e+00	1.317551100000000086e-02	9.903921500000000266e-01	4.112798699999999780e-03	1.013688900000000004e+00	2.260715599999999978e-02
7.056288100000000441e+02	1.002163399999999926e+00	1.398405200000000029e-02	9.904497599999999569e-01	4.369598799999999984e-03	1.014381399999999989e+00	2.388126700000000116e-02
7.450721899999999778e+02	1.002527699999999911e+00	1.472942500000000085e-02	9.903515699999999589e-01	4.561095799999999659e-03	1.015248200000000045e+00	2.518867799999999907e-02
7.867203799999999774e+02	1.002898999999999985e+00	1.539940199999999954e-02	9.902499900000000244e-01	4.743053599999999884e-03	1.016057599999999894e+00	2.639959899999999929e-02
8.306966200000000526e+02	1.003256399999999937e+00	1.606758800000000070e-02	9.900902799999999893e-01	4.765057999999999967e-03	1.017200499999999952e+00	2.767235499999999918e-02
8.771310700000000224e+02	1.003657999999999939e+00	1.668129499999999876e-02	9.897700900000000468e-01	4.636624500000000385e-03	1.018301700000000087e+00	2.898753600000000125e-02
9.261611100000000079e+02	1.004081999999999919e+00	1.732948100000000075e-02	9.894805800000000540e-01	4.436993499999999924e-03	1.019270799999999921e+00	3.027716199999999983e-02
9.779318399999999656e+02	1.004361000000000059e+00	1.810263000000000150e-02	9.890798699999999721e-01	4.061908799999999764e-03	1.020281400000000005e+00	3.196738600000000041e-02
1.032596500000000106e+03	1.004721299999999928e+00	1.879313100000000111e-02	9.885151399999999589e-01	3.617694800000000131e-03	1.021579500000000085e+00	3.371717300000000306e-02
1.090316700000000083e+03	1.005298100000000083e+00	1.955713099999999843e-02	9.879928500000000335e-01	3.235093399999999786e-03	1.023040600000000078e+00	3.544475400000000193e-02
1.151263500000000022e+03	1.005733500000000058e+00	2.034952500000000025e-02	9.873901699999999559e-01	2.793609399999999986e-03	1.024250399999999894e+00	3.739515999999999674e-02
1.215616999999999962e+03	1.006332100000000063e+00	2.112903500000000087e-02	9.866973999999999467e-01	2.267290099999999965e-03	1.026023200000000024e+00	3.942936699999999989e-02
1.283567800000000034e+03	1.006830799999999915e+00	2.194078600000000032e-02	9.859251399999999776e-01	1.611052499999999924e-03	1.027788399999999935e+00	4.139843299999999837e-02
1.355317000000000007e+03	1.007331100000000035e+00	2.273755800000000146e-02	9.850870000000000459e-01	1.027454699999999933e-03	1.029833699999999963e+00	4.365398100000000142e-02
1.431076700000000073e+03	1.007802199999999981e+00	2.349424699999999935e-02	9.842621400000000076e-01	1.125658599999999963e-04	1.031652400000000025e+00	4.597830299999999815e-02
1.511071300000000065e+03	1.008310999999999957e+00	2.413816699999999857e-02	9.832058399999999976e-01	-8.425729299999999526e-04	1.033887000000000000e+00	4.827704099999999970e-02
1.595537499999999909e+03	1.008897099999999991e+00	2.491721499999999950e-02	9.823435999999999835e-01	-1.840185100000000075e-03	1.036093900000000012e+00	5.056960900000000148e-02
1.684725200000000086e+03	1.009484599999999954e+00	2.565585999999999908e-02	9.811568899999999482e-01	-2.832676499999999854e-03	1.038405400000000034e+00	5.288873599999999869e-02
1.778898200000000088e+03	1.010097100000000081e+00	2.626992499999999953e-02	9.799126000000000225e-01	-3.947415699999999930e-03	1.040946399999999938e+00	5.545526800000000200e-02
1.878335399999999936e+03	1.010687399999999903e+00	2.711454099999999895e-02	9.787653200000000497e-01	-5.244739699999999803e-03	1.043624799999999908e+00	5.819379400000000008e-02
1.983330999999999904e+03	1.011302700000000110e+00	2.781804900000000094e-02	9.773777299999999446e-01	-6.492122399999999613e-03	1.046488800000000108e+00	6.093971499999999847e-02
2.094195600000000013e+03	1.011937700000000051e+00	2.861168399999999834e-02	9.760210700000000461e-01	-7.839154799999999493e-03	1.049138600000000032e+00	6.399311600000000266e-02
2.211257399999999961e+03	1.012625700000000073e+00	2.944627000000000008e-02	9.746876700000000060e-01	-9.192751900000000614e-03	1.051927199999999951e+00	6.717188699999999957e-02
