#Frequency	Median Mag	Phase (Rad)	-1 Sigma Mag	-1 Sigma Phase	+1 Sigma Mag	+1 Sigma Phase
5.000000000000000000e+00	1.043788699999999903e+00	-7.322717400000000425e-03	9.940504900000000088e-01	-9.602957299999999308e-02	1.096883400000000064e+00	8.072782700000000200e-02
5.279491000000000156e+00	1.043439800000000028e+00	-1.161363299999999994e-02	9.929014099999999843e-01	-8.618232400000000459e-02	1.096642600000000023e+00	6.247789299999999962e-02
5.574605000000000032e+00	1.042073800000000050e+00	-1.549308400000000072e-02	9.926277199999999912e-01	-7.621319799999999589e-02	1.093587300000000040e+00	4.609580299999999770e-02
5.886215299999999928e+00	1.040148899999999932e+00	-1.830823800000000098e-02	9.939181499999999447e-01	-6.794098099999999751e-02	1.088405700000000031e+00	3.202972500000000194e-02
6.215244099999999605e+00	1.037707500000000005e+00	-2.005325000000000163e-02	9.951004199999999855e-01	-6.006806299999999793e-02	1.081458199999999925e+00	2.070376399999999950e-02
6.562665100000000251e+00	1.035275600000000074e+00	-2.100161899999999915e-02	9.971623099999999962e-01	-5.332414099999999851e-02	1.073987100000000083e+00	1.216437700000000052e-02
6.929506199999999616e+00	1.033077400000000035e+00	-2.125198500000000101e-02	9.993844400000000405e-01	-4.819904600000000233e-02	1.067422300000000046e+00	5.680123300000000132e-03
7.316853100000000332e+00	1.031188100000000052e+00	-2.173005299999999917e-02	1.000642899999999891e+00	-4.407132999999999884e-02	1.062289000000000039e+00	6.096070400000000227e-04
7.725851999999999720e+00	1.028474200000000005e+00	-2.199121899999999935e-02	1.000217899999999993e+00	-4.031478100000000092e-02	1.059177199999999930e+00	-3.257456100000000188e-03
8.157713100000000495e+00	1.026414299999999891e+00	-2.227201399999999970e-02	9.985719899999999649e-01	-3.743766899999999981e-02	1.057736000000000010e+00	-6.568550099999999857e-03
8.613714599999999777e+00	1.024343999999999921e+00	-2.265116699999999983e-02	9.964055499999999732e-01	-3.570497799999999833e-02	1.057285000000000030e+00	-8.937746200000000821e-03
9.095205699999999283e+00	1.022553299999999998e+00	-2.308972399999999897e-02	9.946819500000000369e-01	-3.676673899999999967e-02	1.056392800000000021e+00	-9.226762799999999737e-03
9.603611199999999570e+00	1.020908099999999985e+00	-2.336800799999999914e-02	9.930715599999999643e-01	-4.067347400000000113e-02	1.054898899999999973e+00	-6.671839899999999594e-03
1.014043599999999934e+01	1.019355599999999917e+00	-2.360134300000000032e-02	9.923007000000000355e-01	-4.554333399999999782e-02	1.052429999999999977e+00	-3.168709999999999929e-03
1.070726799999999912e+01	1.017983199999999977e+00	-2.386263300000000115e-02	9.924759300000000062e-01	-5.103859300000000015e-02	1.048741700000000110e+00	6.069255200000000031e-04
1.130578500000000020e+01	1.016667599999999894e+00	-2.443086900000000089e-02	9.930442900000000517e-01	-5.648088899999999940e-02	1.044314699999999929e+00	4.415749800000000336e-03
1.193775800000000054e+01	1.015021699999999916e+00	-2.474255100000000152e-02	9.938646399999999659e-01	-6.130022599999999933e-02	1.039206000000000074e+00	7.967540900000000259e-03
1.260505700000000040e+01	1.013458900000000051e+00	-2.507438999999999849e-02	9.947494300000000456e-01	-6.565940400000000454e-02	1.033854999999999968e+00	1.095248000000000055e-02
1.330965699999999963e+01	1.011470799999999892e+00	-2.517541699999999855e-02	9.947428400000000170e-01	-6.868373599999999524e-02	1.028739000000000070e+00	1.295237599999999982e-02
1.405364299999999922e+01	1.008863999999999983e+00	-2.531788399999999883e-02	9.934186799999999984e-01	-7.046662500000000495e-02	1.024482399999999904e+00	1.390292800000000016e-02
1.483921600000000041e+01	1.005744299999999924e+00	-2.527166800000000060e-02	9.899748000000000436e-01	-7.073767599999999933e-02	1.021710499999999966e+00	1.432366900000000068e-02
1.566870100000000043e+01	1.002276100000000003e+00	-2.493106600000000173e-02	9.846074400000000004e-01	-6.929310599999999321e-02	1.020653500000000102e+00	1.382656699999999968e-02
1.654455300000000051e+01	9.991474099999999581e-01	-2.423812300000000031e-02	9.783410999999999635e-01	-6.630356900000000664e-02	1.020929900000000057e+00	1.259763300000000044e-02
1.746936399999999878e+01	9.962503200000000225e-01	-2.282300300000000143e-02	9.721184499999999673e-01	-6.171245499999999939e-02	1.021343899999999971e+00	1.110771099999999928e-02
1.844586999999999932e+01	9.936289200000000266e-01	-2.101338399999999954e-02	9.666156700000000379e-01	-5.520019999999999788e-02	1.021176300000000037e+00	9.117424400000000845e-03
1.947696099999999930e+01	9.915106099999999589e-01	-1.879125900000000113e-02	9.622264200000000267e-01	-4.803822499999999690e-02	1.020801999999999987e+00	7.123972999999999590e-03
2.056568800000000152e+01	9.899103200000000102e-01	-1.606927000000000008e-02	9.598856500000000347e-01	-4.058090200000000203e-02	1.019747699999999924e+00	5.797335800000000088e-03
2.171527199999999880e+01	9.889566600000000429e-01	-1.336576400000000046e-02	9.590980500000000353e-01	-3.365362100000000162e-02	1.018070400000000042e+00	4.926258400000000336e-03
2.292911700000000152e+01	9.885452500000000420e-01	-1.056037299999999964e-02	9.599194599999999467e-01	-2.719040899999999872e-02	1.016278000000000015e+00	4.980886999999999815e-03
2.421081300000000169e+01	9.884384600000000187e-01	-7.751013600000000378e-03	9.618225700000000433e-01	-2.238936299999999893e-02	1.014569999999999972e+00	5.795547699999999657e-03
2.556415399999999849e+01	9.889527200000000073e-01	-5.219676900000000223e-03	9.647019700000000197e-01	-1.879747999999999836e-02	1.012761400000000034e+00	7.699282000000000001e-03
2.699314400000000091e+01	9.897693400000000530e-01	-2.837646300000000194e-03	9.678278700000000345e-01	-1.618156200000000003e-02	1.011089799999999927e+00	1.023207299999999952e-02
2.850201200000000057e+01	9.905735100000000459e-01	-6.385065099999999699e-04	9.714765800000000340e-01	-1.417612799999999965e-02	1.009741400000000011e+00	1.265827400000000061e-02
3.009522300000000072e+01	9.919998899999999953e-01	1.213452899999999937e-03	9.749215500000000256e-01	-1.263092399999999997e-02	1.008870200000000050e+00	1.502011999999999965e-02
3.177749100000000126e+01	9.935564199999999957e-01	2.817954100000000153e-03	9.782306499999999794e-01	-1.138626799999999974e-02	1.008689399999999958e+00	1.700366400000000167e-02
3.355379599999999840e+01	9.952428700000000017e-01	4.180742999999999786e-03	9.811732800000000365e-01	-1.050394200000000049e-02	1.009370499999999948e+00	1.848887800000000026e-02
3.542939200000000000e+01	9.969913900000000329e-01	5.208767300000000100e-03	9.832454000000000471e-01	-9.482008199999999304e-03	1.011209400000000036e+00	1.938395000000000049e-02
3.740983200000000153e+01	9.988961699999999722e-01	5.845839099999999844e-03	9.847158799999999879e-01	-8.886884499999999146e-03	1.013469699999999918e+00	1.981792799999999855e-02
3.950097399999999936e+01	1.000783399999999990e+00	6.089604900000000071e-03	9.857398200000000443e-01	-8.209520700000000337e-03	1.016257200000000083e+00	1.975810899999999939e-02
4.170900699999999972e+01	1.002642000000000033e+00	5.957419000000000256e-03	9.866984100000000257e-01	-7.810499000000000261e-03	1.019028299999999998e+00	1.925663999999999848e-02
4.404046499999999753e+01	1.004376900000000017e+00	5.370735100000000213e-03	9.873779400000000095e-01	-7.856109300000000545e-03	1.021996700000000091e+00	1.852459500000000134e-02
4.650224699999999700e+01	1.005868100000000043e+00	4.615115999999999837e-03	9.881279099999999982e-01	-8.226044000000000064e-03	1.023873000000000033e+00	1.734720199999999907e-02
4.910163899999999870e+01	1.007047199999999920e+00	3.582630800000000115e-03	9.889961499999999628e-01	-8.825264799999999604e-03	1.025734600000000052e+00	1.605830700000000083e-02
5.184633199999999675e+01	1.007860200000000095e+00	2.359188199999999978e-03	9.897137299999999582e-01	-9.804800699999999605e-03	1.026776700000000098e+00	1.478433300000000020e-02
5.474444799999999844e+01	1.008416500000000049e+00	1.015738499999999924e-03	9.904080199999999445e-01	-1.127364200000000038e-02	1.027136700000000014e+00	1.356093799999999981e-02
5.780456399999999917e+01	1.008639300000000016e+00	-1.989586799999999950e-04	9.912734100000000215e-01	-1.263029499999999972e-02	1.026790599999999998e+00	1.266533599999999926e-02
6.103573500000000251e+01	1.008377300000000032e+00	-1.262122299999999956e-03	9.919365199999999883e-01	-1.444319399999999948e-02	1.025923900000000000e+00	1.184930099999999958e-02
6.444752200000000641e+01	1.008012099999999966e+00	-2.228158000000000048e-03	9.922714299999999543e-01	-1.604080600000000120e-02	1.024347700000000083e+00	1.145789300000000024e-02
6.805002199999999846e+01	1.007529200000000014e+00	-2.953053800000000027e-03	9.928156399999999993e-01	-1.764731900000000159e-02	1.022248599999999952e+00	1.137544000000000055e-02
7.185389600000000598e+01	1.006579200000000007e+00	-3.465068799999999807e-03	9.933344299999999905e-01	-1.870243499999999989e-02	1.019808400000000059e+00	1.118584199999999966e-02
7.587039900000000614e+01	1.005615300000000101e+00	-3.804137799999999809e-03	9.937654999999999683e-01	-1.950467300000000015e-02	1.017524400000000107e+00	1.158952299999999914e-02
8.011141700000000299e+01	1.004768799999999906e+00	-3.807280000000000126e-03	9.942467499999999569e-01	-1.989083800000000096e-02	1.015209000000000028e+00	1.214489900000000067e-02
8.458950099999999850e+01	1.003929700000000036e+00	-3.662787199999999882e-03	9.947561700000000506e-01	-1.997695600000000057e-02	1.013058299999999967e+00	1.269442099999999914e-02
8.931790100000000621e+01	1.003151099999999962e+00	-3.238504000000000122e-03	9.949580700000000277e-01	-1.976222799999999974e-02	1.011322199999999949e+00	1.329945700000000064e-02
9.431060999999999694e+01	1.002389799999999997e+00	-2.909819299999999789e-03	9.949711300000000369e-01	-1.933107300000000070e-02	1.009922200000000103e+00	1.370737699999999976e-02
9.958240299999999934e+01	1.001772099999999943e+00	-2.267523599999999792e-03	9.945885199999999760e-01	-1.862325299999999934e-02	1.009219899999999948e+00	1.411572799999999926e-02
1.051488800000000055e+02	1.001318500000000000e+00	-1.374179299999999998e-03	9.937553099999999473e-01	-1.742311800000000133e-02	1.009184700000000046e+00	1.430669799999999964e-02
1.110265100000000018e+02	1.000057999999999891e+00	2.665459000000000122e-04	9.915346900000000518e-01	-1.558272500000000040e-02	1.008726500000000081e+00	1.562442799999999923e-02
1.172326900000000052e+02	1.000895099999999927e+00	3.413338799999999867e-04	9.913237299999999586e-01	-1.399820499999999968e-02	1.010470699999999944e+00	1.429301799999999935e-02
1.237857900000000058e+02	1.000804800000000050e+00	1.167201099999999906e-03	9.901609799999999684e-01	-1.210748199999999927e-02	1.011593699999999929e+00	1.387409400000000001e-02
1.307051899999999875e+02	1.000954600000000028e+00	1.971500599999999933e-03	9.891497200000000101e-01	-1.008536600000000012e-02	1.012761800000000045e+00	1.356184300000000051e-02
1.380113800000000026e+02	1.001074000000000019e+00	2.821015300000000170e-03	9.883863999999999983e-01	-7.792152400000000242e-03	1.013874299999999895e+00	1.299466399999999952e-02
1.457259599999999864e+02	1.001437300000000086e+00	3.615007600000000147e-03	9.881676000000000348e-01	-5.502746600000000404e-03	1.015069500000000069e+00	1.244873500000000070e-02
1.538717800000000011e+02	1.002059800000000056e+00	4.222942500000000099e-03	9.883648900000000515e-01	-3.645875399999999947e-03	1.015935699999999997e+00	1.196422800000000036e-02
1.624729399999999941e+02	1.002674099999999902e+00	4.793157999999999620e-03	9.892448299999999639e-01	-1.986639300000000215e-03	1.016566899999999940e+00	1.151885100000000009e-02
1.715548799999999972e+02	1.003695400000000015e+00	4.770828099999999995e-03	9.906513900000000206e-01	-1.285172700000000029e-03	1.017019399999999907e+00	1.058229299999999956e-02
1.811444899999999905e+02	1.004322200000000054e+00	4.915550900000000174e-03	9.917772599999999938e-01	-5.792000899999999496e-04	1.017122899999999941e+00	1.028049800000000076e-02
1.912701399999999978e+02	1.004956200000000077e+00	4.723841399999999593e-03	9.931274399999999725e-01	-3.823714899999999957e-04	1.017058599999999924e+00	9.868922699999999396e-03
2.019617900000000077e+02	1.005562800000000090e+00	4.494587500000000145e-03	9.942767000000000133e-01	-4.711551600000000225e-04	1.016883800000000004e+00	9.465562699999999219e-03
2.132510900000000049e+02	1.005905400000000061e+00	4.177134300000000418e-03	9.952922800000000292e-01	-7.291509000000000055e-04	1.016486900000000082e+00	8.993628300000000575e-03
2.251714399999999898e+02	1.006211500000000036e+00	3.820591999999999825e-03	9.962961399999999967e-01	-9.634230099999999955e-04	1.015993099999999982e+00	8.606299899999999420e-03
2.377581199999999910e+02	1.006466599999999989e+00	3.476521599999999983e-03	9.970206900000000427e-01	-1.231298600000000016e-03	1.015466800000000003e+00	8.242515599999999942e-03
2.510483700000000056e+02	1.006538900000000014e+00	3.142972500000000124e-03	9.976618400000000220e-01	-1.462554200000000092e-03	1.014981499999999981e+00	7.871631699999999399e-03
2.650815200000000118e+02	1.006525700000000079e+00	2.882971299999999900e-03	9.980544599999999766e-01	-1.655062500000000067e-03	1.014550899999999922e+00	7.543536499999999728e-03
2.798990999999999758e+02	1.006443100000000035e+00	2.610914000000000203e-03	9.986014199999999619e-01	-1.752416599999999901e-03	1.014106399999999963e+00	7.156900100000000361e-03
2.955449499999999716e+02	1.006335999999999897e+00	2.455347899999999958e-03	9.988913799999999954e-01	-1.791455599999999945e-03	1.013817500000000038e+00	6.877081299999999835e-03
3.120653800000000047e+02	1.006313900000000094e+00	2.354073199999999998e-03	9.992237099999999872e-01	-1.803892799999999921e-03	1.013571999999999917e+00	6.591190299999999912e-03
3.295092700000000150e+02	1.005954400000000026e+00	2.266232100000000003e-03	9.990559900000000049e-01	-1.763826200000000091e-03	1.012990400000000069e+00	6.439539900000000074e-03
3.479282499999999914e+02	1.005745700000000076e+00	2.318368500000000075e-03	9.989438999999999957e-01	-1.621178399999999948e-03	1.012586399999999998e+00	6.358228700000000296e-03
3.673768099999999777e+02	1.005333100000000091e+00	2.511917099999999830e-03	9.987418599999999813e-01	-1.472133100000000069e-03	1.012134099999999926e+00	6.558294200000000171e-03
3.879125099999999975e+02	1.004848299999999917e+00	2.950204599999999878e-03	9.982129800000000275e-01	-1.137987000000000026e-03	1.011668800000000035e+00	7.136459099999999979e-03
4.095961199999999849e+02	1.006495300000000093e+00	5.245198999999999868e-03	9.995485800000000198e-01	8.129282999999999735e-04	1.013696099999999989e+00	9.790808499999999540e-03
4.324918000000000120e+02	1.004330900000000026e+00	4.878966999999999679e-03	9.976389599999999636e-01	2.500772499999999950e-05	1.011365000000000069e+00	9.840557300000000313e-03
4.566673099999999863e+02	1.005622599999999922e+00	7.671785700000000215e-03	9.985335800000000317e-01	1.844371299999999917e-03	1.012938200000000011e+00	1.352549599999999970e-02
4.821941899999999919e+02	1.010252300000000103e+00	4.934190100000000224e-03	1.002509400000000106e+00	2.840273999999999837e-04	1.018074099999999982e+00	9.691061699999999751e-03
5.091479699999999866e+02	1.008300699999999939e+00	5.704121999999999838e-03	1.000815299999999963e+00	3.496236700000000027e-04	1.016069600000000017e+00	1.111032500000000076e-02
5.376084299999999985e+02	1.010563799999999901e+00	6.579153499999999648e-03	1.002288300000000021e+00	9.566885900000000539e-04	1.019025000000000070e+00	1.215147400000000065e-02
5.676597699999999804e+02	1.008453000000000044e+00	4.361989999999999618e-03	1.000720999999999972e+00	-1.350044400000000033e-03	1.016486500000000071e+00	9.973884599999999906e-03
5.993909200000000510e+02	1.008039899999999989e+00	5.501144000000000346e-03	1.000081199999999892e+00	-8.910641099999999995e-04	1.016155799999999942e+00	1.191837700000000083e-02
6.328957900000000336e+02	1.008723000000000036e+00	6.321454800000000061e-03	1.000352799999999931e+00	-4.831735500000000150e-04	1.017122099999999918e+00	1.316089099999999922e-02
6.682735300000000507e+02	1.009500400000000075e+00	6.347954400000000406e-03	1.000858500000000095e+00	-6.102078000000000363e-04	1.018271200000000043e+00	1.340851000000000022e-02
7.056288100000000441e+02	1.010022600000000104e+00	6.011769999999999614e-03	1.001141400000000070e+00	-9.999424499999999116e-04	1.018993599999999944e+00	1.314729400000000034e-02
7.450721899999999778e+02	1.010134700000000052e+00	5.496315400000000018e-03	1.001259600000000027e+00	-1.448693399999999949e-03	1.019270499999999968e+00	1.270962100000000081e-02
7.867203799999999774e+02	1.009981100000000076e+00	5.127004699999999915e-03	1.001087000000000060e+00	-1.975939800000000180e-03	1.019149499999999930e+00	1.233813899999999970e-02
8.306966200000000526e+02	1.009655399999999981e+00	4.817837600000000366e-03	1.000671000000000088e+00	-2.447573499999999933e-03	1.018788699999999992e+00	1.209438099999999953e-02
8.771310700000000224e+02	1.009185299999999952e+00	4.605850400000000011e-03	1.000204899999999952e+00	-2.740572599999999918e-03	1.018355099999999958e+00	1.208412300000000043e-02
9.261611100000000079e+02	1.008960999999999997e+00	4.535924900000000079e-03	9.997777399999999703e-01	-3.072833000000000075e-03	1.018187600000000081e+00	1.218629799999999992e-02
9.779318399999999656e+02	1.008565500000000004e+00	4.209829800000000274e-03	9.993979499999999794e-01	-3.514498000000000014e-03	1.017852600000000107e+00	1.199462100000000045e-02
1.032596500000000106e+03	1.008112099999999955e+00	3.825319199999999836e-03	9.989348799999999695e-01	-3.972654600000000147e-03	1.017532799999999904e+00	1.177559300000000087e-02
1.090316700000000083e+03	1.007566100000000020e+00	3.457572800000000175e-03	9.984047200000000233e-01	-4.373027699999999622e-03	1.017151099999999975e+00	1.165809100000000063e-02
1.151263500000000022e+03	1.006925199999999965e+00	3.196782000000000009e-03	9.978152599999999817e-01	-4.911260599999999962e-03	1.016669199999999940e+00	1.145599199999999991e-02
1.215616999999999962e+03	1.006423599999999974e+00	2.748549500000000041e-03	9.971211300000000222e-01	-5.549232299999999965e-03	1.016281699999999955e+00	1.123257299999999917e-02
1.283567800000000034e+03	1.005870100000000100e+00	2.264572800000000125e-03	9.963627400000000245e-01	-6.395780200000000283e-03	1.015879699999999941e+00	1.099749499999999949e-02
1.355317000000000007e+03	1.005314899999999900e+00	1.767858200000000041e-03	9.955718300000000465e-01	-7.210496200000000334e-03	1.015541500000000097e+00	1.079621499999999963e-02
1.431076700000000073e+03	1.004817499999999919e+00	1.293243300000000012e-03	9.947761699999999596e-01	-8.057378000000000456e-03	1.015185900000000085e+00	1.063826399999999971e-02
1.511071300000000065e+03	1.004334700000000025e+00	7.082940499999999546e-04	9.940344700000000033e-01	-9.017463499999999604e-03	1.014856200000000097e+00	1.046646000000000035e-02
1.595537499999999909e+03	1.003800800000000049e+00	1.665384000000000113e-04	9.933372799999999891e-01	-1.007382000000000069e-02	1.014748299999999936e+00	1.027983199999999916e-02
1.684725200000000086e+03	1.003482599999999891e+00	-4.044650999999999910e-04	9.926939999999999653e-01	-1.110269900000000060e-02	1.014755199999999968e+00	1.010962399999999935e-02
1.778898200000000088e+03	1.003217699999999990e+00	-1.115599000000000104e-03	9.920900799999999853e-01	-1.228429399999999942e-02	1.015023299999999962e+00	1.002887799999999975e-02
1.878335399999999936e+03	1.003021799999999963e+00	-1.779222299999999894e-03	9.915720399999999879e-01	-1.347844899999999999e-02	1.015265800000000107e+00	9.988082400000000693e-03
1.983330999999999904e+03	1.003040799999999955e+00	-2.449093199999999911e-03	9.909877499999999451e-01	-1.476582199999999963e-02	1.015703000000000022e+00	9.977977100000000321e-03
2.094195600000000013e+03	1.003112699999999968e+00	-3.176689700000000140e-03	9.906825799999999793e-01	-1.608878899999999917e-02	1.016135199999999905e+00	9.812511299999999992e-03
