#Frequency	Median Mag	Phase (Rad)	-1 Sigma Mag	-1 Sigma Phase	+1 Sigma Mag	+1 Sigma Phase
5.000000000000000000e+00	9.834834300000000473e-01	-5.282587200000000115e-03	9.235622599999999682e-01	-5.526269899999999846e-02	1.042568099999999998e+00	4.490184400000000325e-02
5.279491000000000156e+00	9.829934599999999856e-01	-5.052363100000000287e-03	9.270215400000000328e-01	-5.339085799999999937e-02	1.038499599999999967e+00	4.332123000000000224e-02
5.574605000000000032e+00	9.826064799999999488e-01	-4.887220799999999685e-03	9.296296400000000348e-01	-5.159565099999999932e-02	1.035077000000000025e+00	4.178537499999999960e-02
5.886215299999999928e+00	9.822863400000000356e-01	-4.682755099999999851e-03	9.321315300000000414e-01	-4.987982299999999675e-02	1.032199000000000089e+00	4.086146000000000222e-02
6.215244099999999605e+00	9.818057999999999508e-01	-4.229206099999999711e-03	9.340595900000000507e-01	-4.788658800000000076e-02	1.029498199999999919e+00	3.935349300000000328e-02
6.562665100000000251e+00	9.816237500000000171e-01	-3.805691099999999969e-03	9.357382899999999726e-01	-4.589825599999999839e-02	1.027516099999999932e+00	3.827095400000000286e-02
6.929506199999999616e+00	9.817157499999999981e-01	-3.157218600000000035e-03	9.372681899999999455e-01	-4.377065699999999754e-02	1.025941599999999898e+00	3.705450099999999664e-02
7.316853100000000332e+00	9.816905599999999898e-01	-2.346596700000000077e-03	9.385722499999999968e-01	-4.110139399999999943e-02	1.024999400000000005e+00	3.569269600000000292e-02
7.725851999999999720e+00	9.820191700000000523e-01	-1.572293100000000032e-03	9.395784299999999645e-01	-3.823130300000000120e-02	1.024874300000000016e+00	3.436121300000000156e-02
8.157713100000000495e+00	9.825053500000000550e-01	-7.644194300000000308e-04	9.406707399999999497e-01	-3.527126299999999715e-02	1.024631099999999906e+00	3.264225500000000196e-02
8.613714599999999777e+00	9.831337500000000285e-01	2.897819300000000067e-05	9.419552599999999609e-01	-3.204745700000000141e-02	1.024587700000000101e+00	3.120195400000000049e-02
9.095205699999999283e+00	9.839715300000000386e-01	8.000705299999999985e-04	9.431540499999999660e-01	-2.863676000000000069e-02	1.024508299999999927e+00	2.924783300000000086e-02
9.603611199999999570e+00	9.849527200000000038e-01	1.291237800000000040e-03	9.446072300000000199e-01	-2.531029799999999844e-02	1.024863800000000102e+00	2.702915800000000104e-02
1.014043599999999934e+01	9.860513300000000037e-01	1.729653199999999901e-03	9.463332800000000544e-01	-2.215991100000000089e-02	1.025086600000000070e+00	2.503139700000000037e-02
1.070726799999999912e+01	9.871439600000000425e-01	2.128798400000000025e-03	9.481548300000000040e-01	-1.904278100000000168e-02	1.025105399999999944e+00	2.293278600000000014e-02
1.130578500000000020e+01	9.882402300000000528e-01	2.466956099999999784e-03	9.500473000000000390e-01	-1.625690499999999858e-02	1.025226900000000052e+00	2.089975900000000039e-02
1.193775800000000054e+01	9.892188200000000542e-01	2.597121300000000080e-03	9.523249000000000297e-01	-1.389527200000000018e-02	1.025150599999999912e+00	1.904944500000000165e-02
1.260505700000000040e+01	9.901205100000000092e-01	2.796160700000000030e-03	9.544230500000000506e-01	-1.174643300000000057e-02	1.024947899999999912e+00	1.734710799999999997e-02
1.330965699999999963e+01	9.912085899999999450e-01	2.917367900000000010e-03	9.566714299999999893e-01	-9.967577300000000570e-03	1.024829200000000107e+00	1.575820400000000135e-02
1.405364299999999922e+01	9.920377799999999802e-01	2.914579699999999846e-03	9.588386899999999935e-01	-8.648103399999999136e-03	1.024579899999999988e+00	1.428735599999999932e-02
1.483921600000000041e+01	9.931107999999999603e-01	2.811214199999999882e-03	9.609450699999999568e-01	-7.537946099999999830e-03	1.024366000000000110e+00	1.319100200000000028e-02
1.566870100000000043e+01	9.939773299999999923e-01	2.663602699999999962e-03	9.629086500000000326e-01	-7.028683899999999853e-03	1.024146800000000024e+00	1.249691099999999944e-02
1.654455300000000051e+01	9.947949299999999662e-01	2.524726299999999809e-03	9.646475700000000097e-01	-6.927433799999999607e-03	1.023976599999999904e+00	1.206842500000000068e-02
1.746936399999999878e+01	9.957288300000000092e-01	2.409761299999999950e-03	9.663045200000000001e-01	-7.138876199999999797e-03	1.024193799999999932e+00	1.188487499999999961e-02
1.844586999999999932e+01	9.966151100000000262e-01	2.213546700000000068e-03	9.679585800000000129e-01	-8.024713600000000363e-03	1.024219599999999897e+00	1.218950100000000016e-02
1.947696099999999930e+01	9.971431400000000389e-01	1.887421499999999974e-03	9.694434899999999633e-01	-9.257465100000000779e-03	1.024484699999999915e+00	1.279239400000000033e-02
2.056568800000000152e+01	9.976259800000000233e-01	1.454807999999999926e-03	9.704082400000000330e-01	-1.083865500000000086e-02	1.024819799999999947e+00	1.376662000000000025e-02
2.171527199999999880e+01	9.982135300000000155e-01	1.143625199999999962e-03	9.715572599999999781e-01	-1.271546599999999992e-02	1.025453100000000006e+00	1.519191599999999975e-02
2.292911700000000152e+01	9.986313700000000182e-01	8.957429999999999516e-04	9.721781400000000239e-01	-1.511143700000000013e-02	1.025732799999999889e+00	1.680258199999999993e-02
2.421081300000000169e+01	9.990911199999999992e-01	4.497688099999999829e-04	9.727825100000000447e-01	-1.785847900000000002e-02	1.026262400000000019e+00	1.904891699999999854e-02
2.556415399999999849e+01	9.996676399999999685e-01	5.665082799999999970e-05	9.733258799999999766e-01	-2.110242000000000021e-02	1.026873799999999948e+00	2.160723999999999978e-02
2.699314400000000091e+01	1.000337400000000043e+00	-2.504866900000000214e-04	9.738053599999999532e-01	-2.498724100000000031e-02	1.027431399999999995e+00	2.453113700000000147e-02
2.850201200000000057e+01	1.000685000000000047e+00	-6.135736900000000231e-04	9.746287500000000437e-01	-2.922223800000000107e-02	1.027576999999999963e+00	2.794411999999999938e-02
3.009522300000000072e+01	1.001146199999999986e+00	-1.080021200000000087e-03	9.754524399999999762e-01	-3.409947499999999715e-02	1.027400499999999939e+00	3.172773100000000207e-02
3.177749100000000126e+01	1.001472300000000093e+00	-1.848680400000000034e-03	9.765628200000000536e-01	-3.947810100000000155e-02	1.027178900000000006e+00	3.577184399999999709e-02
3.355379599999999840e+01	1.002014399999999972e+00	-2.315392700000000123e-03	9.775815300000000319e-01	-4.547023099999999984e-02	1.026874300000000018e+00	3.961365800000000298e-02
3.542939200000000000e+01	1.002358499999999930e+00	-3.105588600000000043e-03	9.774988399999999800e-01	-5.113523200000000268e-02	1.026816900000000032e+00	4.377298400000000089e-02
3.740983200000000153e+01	1.002414300000000091e+00	-3.608806899999999866e-03	9.755933300000000363e-01	-5.616964700000000310e-02	1.028717300000000057e+00	4.677463199999999655e-02
3.950097399999999936e+01	1.002406899999999990e+00	-4.448358999999999820e-03	9.707208699999999579e-01	-5.925263399999999847e-02	1.032781200000000066e+00	4.820357100000000061e-02
4.170900699999999972e+01	1.001630999999999938e+00	-5.048968800000000305e-03	9.618338800000000299e-01	-6.019631300000000129e-02	1.039221600000000079e+00	4.729199800000000176e-02
4.404046499999999753e+01	1.000110199999999949e+00	-5.141034200000000123e-03	9.517154399999999681e-01	-5.735947000000000268e-02	1.046941300000000075e+00	4.347729699999999808e-02
4.650224699999999700e+01	9.986458400000000069e-01	-4.620436900000000208e-03	9.426968100000000517e-01	-5.069710000000000188e-02	1.053337200000000085e+00	3.666880499999999876e-02
4.910163899999999870e+01	9.980785100000000298e-01	-4.212176599999999972e-03	9.368665400000000254e-01	-4.154238100000000322e-02	1.057114200000000004e+00	2.953276800000000091e-02
5.184633199999999675e+01	9.975645400000000551e-01	-4.026905699999999699e-03	9.352711999999999692e-01	-3.325946600000000142e-02	1.057950900000000027e+00	2.364190700000000020e-02
5.474444799999999844e+01	9.971733900000000483e-01	-3.714318199999999941e-03	9.379044500000000006e-01	-2.895294699999999971e-02	1.055210100000000040e+00	2.278475799999999871e-02
5.780456399999999917e+01	9.965270099999999909e-01	-3.085557300000000159e-03	9.424063200000000196e-01	-2.907305799999999885e-02	1.050412399999999913e+00	2.510881499999999961e-02
6.103573500000000251e+01	9.962838099999999919e-01	-2.373152600000000105e-03	9.481562000000000046e-01	-3.027819099999999944e-02	1.044523199999999985e+00	2.813480999999999968e-02
6.444752200000000641e+01	9.963718000000000297e-01	-1.800741100000000051e-03	9.544019999999999726e-01	-3.209308599999999984e-02	1.038479799999999953e+00	3.100452999999999890e-02
6.805002199999999846e+01	9.964105699999999954e-01	-1.441646700000000008e-03	9.602251899999999507e-01	-3.309655899999999762e-02	1.032503200000000065e+00	3.300558900000000184e-02
7.185389600000000598e+01	9.965287400000000240e-01	-1.043842600000000108e-03	9.659439699999999851e-01	-3.379122200000000270e-02	1.027456399999999936e+00	3.403493900000000016e-02
7.587039900000000614e+01	9.967339899999999586e-01	-7.630080899999999895e-04	9.711283899999999525e-01	-3.406460800000000316e-02	1.022907999999999928e+00	3.454903499999999877e-02
8.011141700000000299e+01	9.967286400000000546e-01	-5.164628099999999918e-04	9.753487800000000263e-01	-3.393560100000000274e-02	1.018966500000000108e+00	3.460131899999999844e-02
8.458950099999999850e+01	9.968352299999999611e-01	-2.107740299999999868e-04	9.788793300000000475e-01	-3.361924899999999689e-02	1.015556399999999915e+00	3.449362999999999735e-02
8.931790100000000621e+01	9.968776900000000385e-01	1.067910899999999940e-04	9.818142100000000205e-01	-3.308980200000000149e-02	1.012608200000000069e+00	3.426843899999999776e-02
9.431060999999999694e+01	9.969835799999999804e-01	4.902324299999999673e-04	9.837337900000000523e-01	-3.252222200000000341e-02	1.010463700000000076e+00	3.386723600000000195e-02
9.958240299999999934e+01	9.967318800000000145e-01	1.009553500000000010e-03	9.849552799999999886e-01	-3.157855799999999963e-02	1.008977500000000083e+00	3.337373200000000317e-02
1.051488800000000055e+02	9.966636700000000015e-01	1.534328400000000087e-03	9.855404300000000228e-01	-3.071200600000000003e-02	1.008140299999999989e+00	3.283841400000000327e-02
1.110265100000000018e+02	9.966439700000000457e-01	1.857135300000000095e-03	9.855433700000000297e-01	-2.943150799999999859e-02	1.007948000000000066e+00	3.239797600000000194e-02
1.172326900000000052e+02	9.963655399999999940e-01	2.263857199999999830e-03	9.846734099999999712e-01	-2.810360900000000162e-02	1.008301399999999903e+00	3.208063900000000107e-02
1.237857900000000058e+02	9.962543099999999763e-01	2.902785000000000174e-03	9.835448500000000260e-01	-2.688179300000000105e-02	1.009311300000000022e+00	3.171526000000000206e-02
1.307051899999999875e+02	9.962432799999999533e-01	3.634919999999999818e-03	9.819409399999999843e-01	-2.521849500000000049e-02	1.010892700000000088e+00	3.149754600000000127e-02
1.380113800000000026e+02	9.961900299999999486e-01	4.297323900000000335e-03	9.802104799999999951e-01	-2.335021500000000055e-02	1.012823599999999935e+00	3.110183600000000076e-02
1.457259599999999864e+02	9.963741000000000403e-01	5.298846099999999885e-03	9.783061400000000463e-01	-2.112300799999999867e-02	1.015022300000000044e+00	3.049535700000000071e-02
1.538717800000000011e+02	9.965830900000000048e-01	6.008904899999999681e-03	9.764215899999999504e-01	-1.839150700000000138e-02	1.017441700000000004e+00	2.947626700000000044e-02
1.624729399999999941e+02	9.971607399999999899e-01	6.828900899999999601e-03	9.750496800000000297e-01	-1.510372700000000082e-02	1.019795999999999925e+00	2.793525200000000069e-02
1.715548799999999972e+02	9.981247399999999548e-01	7.626977200000000130e-03	9.743680200000000013e-01	-1.126425999999999990e-02	1.021997599999999951e+00	2.590198000000000153e-02
1.811444899999999905e+02	9.990588400000000036e-01	8.158074799999999807e-03	9.744186200000000131e-01	-7.516223100000000296e-03	1.023700000000000054e+00	2.332830199999999868e-02
1.912701399999999978e+02	1.000184100000000020e+00	8.243908700000000117e-03	9.758043199999999473e-01	-4.103743699999999779e-03	1.024403500000000022e+00	2.045535500000000145e-02
2.019617900000000077e+02	1.001117199999999929e+00	8.020843099999999323e-03	9.780763799999999675e-01	-1.780156200000000037e-03	1.024243699999999979e+00	1.793176499999999882e-02
2.132510900000000049e+02	1.001856099999999916e+00	7.647041700000000060e-03	9.805465799999999454e-01	-5.769285000000000515e-04	1.023033300000000034e+00	1.585453599999999894e-02
2.251714399999999898e+02	1.002288199999999962e+00	7.188720699999999811e-03	9.831475499999999812e-01	-3.106547000000000193e-04	1.021454099999999920e+00	1.449090999999999921e-02
2.377581199999999910e+02	1.002637500000000070e+00	6.725729899999999609e-03	9.854804499999999523e-01	-2.981066100000000240e-04	1.019615399999999950e+00	1.358318000000000025e-02
2.510483700000000056e+02	1.002607599999999932e+00	6.425545999999999862e-03	9.872504399999999514e-01	-5.238410499999999505e-04	1.017918199999999995e+00	1.303952000000000062e-02
2.650815200000000118e+02	1.002485800000000093e+00	6.077642000000000287e-03	9.888885099999999984e-01	-8.256371599999999533e-04	1.016220899999999983e+00	1.258997400000000030e-02
2.798990999999999758e+02	1.002148100000000097e+00	5.500189600000000151e-03	9.902945699999999851e-01	-1.378213099999999912e-03	1.014195200000000074e+00	1.209466699999999992e-02
2.955449499999999716e+02	1.000285000000000091e+00	4.641204799999999742e-03	9.896710300000000071e-01	-3.401725799999999814e-03	1.011173600000000006e+00	1.281636400000000023e-02
3.120653800000000047e+02	1.000291700000000006e+00	6.560296299999999851e-03	9.886067899999999575e-01	-2.050260400000000066e-03	1.012355399999999905e+00	1.513857600000000081e-02
3.295092700000000150e+02	1.001507399999999937e+00	8.852938299999999969e-03	9.860042399999999763e-01	1.146133799999999973e-03	1.017139299999999968e+00	1.653047900000000070e-02
3.479282499999999914e+02	1.002101499999999978e+00	7.790753400000000224e-03	9.892543299999999595e-01	6.435994300000000322e-04	1.015201000000000020e+00	1.485747699999999914e-02
3.673768099999999777e+02	1.001991300000000029e+00	7.540609700000000006e-03	9.900453099999999562e-01	2.740245699999999899e-04	1.014118800000000098e+00	1.481672000000000024e-02
3.879125099999999975e+02	1.001751400000000070e+00	7.507859799999999813e-03	9.903550300000000250e-01	2.460393499999999909e-04	1.013501800000000008e+00	1.472464000000000064e-02
4.095961199999999849e+02	1.001289700000000060e+00	7.528430000000000018e-03	9.902266899999999650e-01	3.451320100000000160e-04	1.012633200000000011e+00	1.470786999999999962e-02
4.324918000000000120e+02	1.000232000000000010e+00	8.694608300000000040e-03	9.892976399999999781e-01	3.810596500000000032e-04	1.011402600000000040e+00	1.722279700000000149e-02
4.566673099999999863e+02	1.000258499999999939e+00	8.775289500000000090e-03	9.893465399999999965e-01	5.918441399999999899e-04	1.011061599999999894e+00	1.729926600000000064e-02
4.821941899999999919e+02	1.001698100000000036e+00	1.053528500000000014e-02	9.895980500000000069e-01	2.759278999999999898e-03	1.013989699999999994e+00	1.846990999999999911e-02
5.091479699999999866e+02	1.001285900000000062e+00	1.057796800000000009e-02	9.900388500000000258e-01	2.529779399999999932e-03	1.012805799999999978e+00	1.889548699999999901e-02
5.376084299999999985e+02	1.000923000000000007e+00	1.119844300000000063e-02	9.897789099999999562e-01	2.546258699999999833e-03	1.012244600000000050e+00	2.029718499999999884e-02
5.676597699999999804e+02	1.002254999999999896e+00	1.144530700000000005e-02	9.906717699999999516e-01	3.672364600000000215e-03	1.014225900000000014e+00	1.926847199999999830e-02
5.993909200000000510e+02	1.001849800000000013e+00	1.167970299999999961e-02	9.906888200000000255e-01	3.727289999999999857e-03	1.013373300000000032e+00	1.982459500000000041e-02
6.328957900000000336e+02	1.001776900000000081e+00	1.242119199999999930e-02	9.905408999999999464e-01	3.824177399999999921e-03	1.013349300000000008e+00	2.109919700000000009e-02
6.682735300000000507e+02	1.001902599999999977e+00	1.317756599999999993e-02	9.904159700000000344e-01	4.089163600000000030e-03	1.013630100000000089e+00	2.260403899999999938e-02
7.056288100000000441e+02	1.002150899999999956e+00	1.398908100000000043e-02	9.904583900000000218e-01	4.373322600000000004e-03	1.014388199999999962e+00	2.388300299999999987e-02
7.450721899999999778e+02	1.002500900000000028e+00	1.473416800000000061e-02	9.903601699999999841e-01	4.553328199999999784e-03	1.015226699999999926e+00	2.519964900000000105e-02
7.867203799999999774e+02	1.002872299999999939e+00	1.539306499999999918e-02	9.902494699999999650e-01	4.741861600000000197e-03	1.016061399999999892e+00	2.640995700000000126e-02
8.306966200000000526e+02	1.003259600000000029e+00	1.607013399999999981e-02	9.901378600000000363e-01	4.769596000000000079e-03	1.017200300000000057e+00	2.767626200000000009e-02
8.771310700000000224e+02	1.003692000000000029e+00	1.668786900000000101e-02	9.898551199999999772e-01	4.636610000000000210e-03	1.018242000000000091e+00	2.899617100000000114e-02
9.261611100000000079e+02	1.004114100000000009e+00	1.733134000000000063e-02	9.894851500000000355e-01	4.436000800000000112e-03	1.019262300000000065e+00	3.027958999999999859e-02
9.779318399999999656e+02	1.004343299999999939e+00	1.810399400000000172e-02	9.890688600000000497e-01	4.064094899999999740e-03	1.020243100000000069e+00	3.196864399999999745e-02
1.032596500000000106e+03	1.004735900000000015e+00	1.879446900000000115e-02	9.885209299999999644e-01	3.619031999999999891e-03	1.021563299999999952e+00	3.371855800000000264e-02
1.090316700000000083e+03	1.005266200000000110e+00	1.955863000000000046e-02	9.879518499999999648e-01	3.236979699999999877e-03	1.023037699999999939e+00	3.544593900000000269e-02
1.151263500000000022e+03	1.005730500000000083e+00	2.035110600000000075e-02	9.874357999999999747e-01	2.795336099999999862e-03	1.024187399999999970e+00	3.739684900000000284e-02
1.215616999999999962e+03	1.006321800000000044e+00	2.113149500000000014e-02	9.866988500000000162e-01	2.265980500000000075e-03	1.025954800000000056e+00	3.943340499999999776e-02
1.283567800000000034e+03	1.006841499999999945e+00	2.194391799999999976e-02	9.859016299999999733e-01	1.612981400000000013e-03	1.027835899999999913e+00	4.140190600000000221e-02
1.355317000000000007e+03	1.007287199999999938e+00	2.273982800000000012e-02	9.851250999999999758e-01	1.030304600000000103e-03	1.029834700000000103e+00	4.365683699999999695e-02
1.431076700000000073e+03	1.007774500000000018e+00	2.349623500000000073e-02	9.842659900000000350e-01	1.143639600000000020e-04	1.031610499999999986e+00	4.598008299999999798e-02
1.511071300000000065e+03	1.008308500000000052e+00	2.413960000000000064e-02	9.831987800000000499e-01	-8.404339099999999637e-04	1.033788600000000057e+00	4.827788599999999902e-02
1.595537499999999909e+03	1.008904999999999941e+00	2.491927799999999957e-02	9.823143800000000425e-01	-1.839126699999999977e-03	1.036056599999999994e+00	5.057252100000000222e-02
1.684725200000000086e+03	1.009461100000000000e+00	2.565729300000000115e-02	9.811499500000000484e-01	-2.830378499999999884e-03	1.038333699999999915e+00	5.289134000000000196e-02
1.778898200000000088e+03	1.010060100000000016e+00	2.627130199999999985e-02	9.800535200000000113e-01	-3.946566700000000115e-03	1.040936099999999920e+00	5.545726299999999970e-02
1.878335399999999936e+03	1.010669299999999993e+00	2.711484800000000042e-02	9.787364100000000011e-01	-5.243420399999999641e-03	1.043649800000000072e+00	5.819549999999999723e-02
1.983330999999999904e+03	1.011334399999999967e+00	2.781880600000000148e-02	9.773711600000000166e-01	-6.490681699999999686e-03	1.046343400000000035e+00	6.094110800000000078e-02
2.094195600000000013e+03	1.012024500000000105e+00	2.861263600000000032e-02	9.759943500000000105e-01	-7.836801299999999679e-03	1.049187199999999986e+00	6.399488500000000135e-02
2.211257399999999961e+03	1.012576700000000107e+00	2.944806300000000002e-02	9.746292399999999523e-01	-9.191317799999999469e-03	1.052023699999999895e+00	6.717307000000000139e-02
