#Frequency	Median Mag	Phase (Rad)	-1 Sigma Mag	-1 Sigma Phase	+1 Sigma Mag	+1 Sigma Phase
5.000000000000000000e+00	1.043862099999999904e+00	-7.414742600000000412e-03	9.942178000000000404e-01	-9.601052200000000092e-02	1.096931399999999890e+00	8.059552899999999909e-02
5.279491000000000156e+00	1.043436699999999995e+00	-1.168616199999999994e-02	9.927300900000000095e-01	-8.613258000000000025e-02	1.096554100000000087e+00	6.230756700000000120e-02
5.574605000000000032e+00	1.042167899999999925e+00	-1.547929299999999987e-02	9.925065699999999769e-01	-7.613377899999999865e-02	1.093640500000000015e+00	4.594445300000000315e-02
5.886215299999999928e+00	1.040179600000000093e+00	-1.827266699999999938e-02	9.937037399999999465e-01	-6.794008299999999834e-02	1.088077600000000089e+00	3.200400999999999940e-02
6.215244099999999605e+00	1.037600499999999926e+00	-2.006774199999999952e-02	9.951930500000000235e-01	-6.005662999999999974e-02	1.081417800000000096e+00	2.068223900000000157e-02
6.562665100000000251e+00	1.035123800000000038e+00	-2.102302699999999969e-02	9.972553400000000456e-01	-5.336766099999999680e-02	1.074029200000000017e+00	1.214902300000000011e-02
6.929506199999999616e+00	1.033016799999999957e+00	-2.130950699999999837e-02	9.994899299999999709e-01	-4.815847999999999657e-02	1.067603599999999986e+00	5.626840000000000140e-03
7.316853100000000332e+00	1.031109400000000065e+00	-2.176954600000000073e-02	1.000579700000000072e+00	-4.406522200000000111e-02	1.062227500000000102e+00	5.074874999999999959e-04
7.725851999999999720e+00	1.028490099999999963e+00	-2.198858500000000146e-02	1.000294699999999981e+00	-4.033656299999999889e-02	1.059158999999999962e+00	-3.373708300000000104e-03
8.157713100000000495e+00	1.026432400000000023e+00	-2.227281600000000084e-02	9.985685199999999595e-01	-3.746229200000000120e-02	1.057629099999999989e+00	-6.568526499999999615e-03
8.613714599999999777e+00	1.024348299999999989e+00	-2.267038199999999934e-02	9.964849900000000149e-01	-3.572599299999999756e-02	1.057179599999999997e+00	-8.957229699999999517e-03
9.095205699999999283e+00	1.022544200000000014e+00	-2.312587300000000165e-02	9.947093000000000185e-01	-3.677676400000000345e-02	1.056275499999999923e+00	-9.258524799999999152e-03
9.603611199999999570e+00	1.020893400000000062e+00	-2.341838799999999832e-02	9.932575000000000154e-01	-4.062195799999999968e-02	1.054777800000000099e+00	-6.773432200000000306e-03
1.014043599999999934e+01	1.019379999999999953e+00	-2.366719899999999988e-02	9.924631299999999712e-01	-4.547438000000000174e-02	1.052219800000000038e+00	-3.257507700000000003e-03
1.070726799999999912e+01	1.018007899999999966e+00	-2.387841900000000142e-02	9.924790000000000001e-01	-5.094466599999999956e-02	1.048656000000000033e+00	4.673105200000000057e-04
1.130578500000000020e+01	1.016626299999999983e+00	-2.439748900000000137e-02	9.931994100000000048e-01	-5.629102099999999664e-02	1.044379799999999969e+00	4.347840700000000190e-03
1.193775800000000054e+01	1.015124799999999938e+00	-2.477907400000000163e-02	9.939882599999999568e-01	-6.111310699999999985e-02	1.039170600000000055e+00	7.736183599999999980e-03
1.260505700000000040e+01	1.013434500000000016e+00	-2.503812899999999925e-02	9.946169599999999944e-01	-6.534139499999999656e-02	1.033720200000000089e+00	1.073617500000000058e-02
1.330965699999999963e+01	1.011414599999999941e+00	-2.510650799999999960e-02	9.946657199999999754e-01	-6.839192099999999441e-02	1.028727100000000005e+00	1.261522699999999969e-02
1.405364299999999922e+01	1.008804400000000046e+00	-2.537274200000000021e-02	9.933102600000000004e-01	-7.012967999999999980e-02	1.024550400000000083e+00	1.362095999999999967e-02
1.483921600000000041e+01	1.005769600000000041e+00	-2.524328899999999862e-02	9.897778000000000409e-01	-7.019217199999999712e-02	1.021800700000000006e+00	1.408300200000000071e-02
1.566870100000000043e+01	1.002367900000000089e+00	-2.490367900000000148e-02	9.845821900000000237e-01	-6.876142600000000049e-02	1.020756100000000055e+00	1.356554500000000003e-02
1.654455300000000051e+01	9.991661200000000465e-01	-2.407451500000000119e-02	9.784087599999999885e-01	-6.590900700000000556e-02	1.020759299999999925e+00	1.245119400000000050e-02
1.746936399999999878e+01	9.962913599999999592e-01	-2.267575200000000041e-02	9.722651500000000224e-01	-6.126468899999999718e-02	1.021215900000000065e+00	1.080647499999999941e-02
1.844586999999999932e+01	9.936405200000000271e-01	-2.084182299999999891e-02	9.669165600000000360e-01	-5.487811299999999920e-02	1.020945299999999945e+00	8.889345400000000022e-03
1.947696099999999930e+01	9.915769899999999915e-01	-1.872869599999999954e-02	9.627172600000000191e-01	-4.769168299999999860e-02	1.020692300000000108e+00	6.954449500000000305e-03
2.056568800000000152e+01	9.900494699999999870e-01	-1.601520199999999922e-02	9.601720000000000255e-01	-4.052156999999999981e-02	1.019662000000000068e+00	5.735986499999999946e-03
2.171527199999999880e+01	9.890055100000000321e-01	-1.329528699999999938e-02	9.595623699999999978e-01	-3.368615300000000340e-02	1.017951400000000062e+00	4.844126800000000087e-03
2.292911700000000152e+01	9.885512899999999714e-01	-1.063133699999999938e-02	9.603268000000000360e-01	-2.723705800000000149e-02	1.016173599999999899e+00	4.911939700000000388e-03
2.421081300000000169e+01	9.885218599999999745e-01	-7.780788500000000024e-03	9.621254799999999774e-01	-2.259136399999999920e-02	1.014387499999999998e+00	5.802576099999999862e-03
2.556415399999999849e+01	9.890118199999999860e-01	-5.202586999999999837e-03	9.649569399999999852e-01	-1.883051700000000148e-02	1.012572400000000039e+00	7.714714400000000256e-03
2.699314400000000091e+01	9.898006999999999778e-01	-2.892430899999999961e-03	9.680496600000000340e-01	-1.628237399999999876e-02	1.011010399999999976e+00	1.016995899999999925e-02
2.850201200000000057e+01	9.906000099999999753e-01	-7.076153100000000425e-04	9.715537600000000440e-01	-1.439705500000000062e-02	1.009722500000000078e+00	1.257486699999999999e-02
3.009522300000000072e+01	9.919458199999999781e-01	1.042800699999999999e-03	9.749633500000000064e-01	-1.285953999999999917e-02	1.008838799999999924e+00	1.492984999999999972e-02
3.177749100000000126e+01	9.935333600000000320e-01	2.721377599999999855e-03	9.782019299999999973e-01	-1.158564200000000016e-02	1.008666099999999899e+00	1.699320099999999945e-02
3.355379599999999840e+01	9.952089400000000419e-01	4.049844700000000165e-03	9.811319200000000462e-01	-1.059427299999999954e-02	1.009397700000000064e+00	1.853678900000000143e-02
3.542939200000000000e+01	9.969407399999999919e-01	5.019287300000000417e-03	9.831611199999999995e-01	-9.696493599999999810e-03	1.011158800000000024e+00	1.941948900000000158e-02
3.740983200000000153e+01	9.987189100000000153e-01	5.757897599999999873e-03	9.846268500000000534e-01	-9.033836700000000622e-03	1.013351300000000066e+00	1.989954199999999923e-02
3.950097399999999936e+01	1.000643399999999961e+00	6.054333500000000021e-03	9.855878799999999718e-01	-8.380122099999999866e-03	1.016121199999999947e+00	1.991389799999999932e-02
4.170900699999999972e+01	1.002520499999999926e+00	5.944961799999999748e-03	9.864804200000000245e-01	-8.128482500000000846e-03	1.018985800000000053e+00	1.932048299999999941e-02
4.404046499999999753e+01	1.004325399999999924e+00	5.411732699999999632e-03	9.872007600000000105e-01	-7.995575499999999294e-03	1.021996099999999963e+00	1.860505800000000071e-02
4.650224699999999700e+01	1.005755799999999978e+00	4.649538499999999672e-03	9.879953500000000499e-01	-8.449012800000000808e-03	1.023941699999999955e+00	1.749875999999999862e-02
4.910163899999999870e+01	1.006996699999999967e+00	3.665012400000000180e-03	9.887654099999999557e-01	-8.944957499999999645e-03	1.025793799999999978e+00	1.629292699999999872e-02
5.184633199999999675e+01	1.007798200000000088e+00	2.384985799999999895e-03	9.895062300000000421e-01	-9.977347699999999930e-03	1.026832500000000037e+00	1.501296199999999949e-02
5.474444799999999844e+01	1.008355200000000007e+00	1.066519599999999918e-03	9.902107900000000074e-01	-1.127557700000000017e-02	1.027284499999999934e+00	1.382171999999999915e-02
5.780456399999999917e+01	1.008623700000000012e+00	-9.549915500000000571e-05	9.911035999999999735e-01	-1.276004900000000074e-02	1.027069999999999927e+00	1.300625300000000061e-02
6.103573500000000251e+01	1.008358800000000111e+00	-1.187998599999999993e-03	9.916098599999999541e-01	-1.452293500000000070e-02	1.026001900000000022e+00	1.217534900000000024e-02
6.444752200000000641e+01	1.008034899999999956e+00	-2.123506399999999968e-03	9.920578199999999791e-01	-1.612986599999999965e-02	1.024593700000000052e+00	1.162648999999999974e-02
6.805002199999999846e+01	1.007526700000000108e+00	-2.827434399999999900e-03	9.926310299999999698e-01	-1.763278500000000151e-02	1.022557200000000055e+00	1.153339899999999973e-02
7.185389600000000598e+01	1.006606300000000065e+00	-3.464461399999999979e-03	9.930745699999999898e-01	-1.886003600000000016e-02	1.020096499999999962e+00	1.150327999999999941e-02
7.587039900000000614e+01	1.005697199999999958e+00	-3.693888900000000079e-03	9.935600799999999566e-01	-1.967344500000000121e-02	1.017717399999999994e+00	1.178443199999999920e-02
8.011141700000000299e+01	1.004857099999999948e+00	-3.795751999999999893e-03	9.940153400000000250e-01	-2.016520999999999939e-02	1.015566799999999992e+00	1.233561300000000048e-02
8.458950099999999850e+01	1.003989299999999973e+00	-3.657708100000000000e-03	9.945235999999999521e-01	-2.018649800000000064e-02	1.013361900000000038e+00	1.282402300000000037e-02
8.931790100000000621e+01	1.003149300000000022e+00	-3.208237899999999941e-03	9.946940300000000068e-01	-1.993900800000000112e-02	1.011577900000000030e+00	1.341859899999999980e-02
9.431060999999999694e+01	1.002381900000000048e+00	-2.934694900000000151e-03	9.946432699999999683e-01	-1.948050499999999866e-02	1.010160399999999958e+00	1.381350699999999918e-02
9.958240299999999934e+01	1.001778800000000080e+00	-2.225071300000000009e-03	9.942850100000000246e-01	-1.881397200000000172e-02	1.009516400000000091e+00	1.432523800000000055e-02
1.051488800000000055e+02	1.001276800000000078e+00	-1.386483300000000089e-03	9.934628399999999582e-01	-1.758871999999999866e-02	1.009441800000000056e+00	1.449678499999999988e-02
1.110265100000000018e+02	1.000036799999999948e+00	3.183804899999999913e-04	9.912504100000000262e-01	-1.572177799999999875e-02	1.008868700000000063e+00	1.576647600000000149e-02
1.172326900000000052e+02	1.000850900000000099e+00	3.413100900000000165e-04	9.911414200000000507e-01	-1.412413199999999931e-02	1.010686100000000032e+00	1.449046499999999925e-02
1.237857900000000058e+02	1.000788400000000022e+00	1.179835699999999977e-03	9.899402200000000374e-01	-1.225879099999999979e-02	1.011757999999999935e+00	1.400862800000000040e-02
1.307051899999999875e+02	1.000883900000000049e+00	2.015388700000000140e-03	9.889385099999999928e-01	-1.017003799999999930e-02	1.012942999999999927e+00	1.367277400000000039e-02
1.380113800000000026e+02	1.001094499999999998e+00	2.825301699999999919e-03	9.882038600000000450e-01	-7.852276899999999921e-03	1.014070900000000108e+00	1.312523900000000035e-02
1.457259599999999864e+02	1.001428999999999903e+00	3.651193200000000128e-03	9.879096299999999831e-01	-5.544833499999999617e-03	1.015257300000000029e+00	1.255781599999999942e-02
1.538717800000000011e+02	1.002124599999999921e+00	4.265390800000000253e-03	9.881531199999999959e-01	-3.643791600000000162e-03	1.016154100000000060e+00	1.204922400000000074e-02
1.624729399999999941e+02	1.002694200000000091e+00	4.836390099999999907e-03	9.890587299999999971e-01	-1.997428500000000048e-03	1.016849499999999962e+00	1.155734700000000080e-02
1.715548799999999972e+02	1.003692999999999946e+00	4.785981899999999789e-03	9.905253400000000319e-01	-1.256655200000000036e-03	1.017304200000000103e+00	1.063200000000000083e-02
1.811444899999999905e+02	1.004369599999999974e+00	4.936277400000000336e-03	9.917496599999999773e-01	-5.863854799999999564e-04	1.017341199999999946e+00	1.028802499999999925e-02
1.912701399999999978e+02	1.005020299999999978e+00	4.756127500000000355e-03	9.931123899999999560e-01	-4.173115399999999730e-04	1.017208899999999971e+00	9.893793600000000757e-03
2.019617900000000077e+02	1.005570800000000098e+00	4.502319900000000159e-03	9.942638200000000204e-01	-5.092811200000000541e-04	1.016975900000000044e+00	9.467835299999999635e-03
2.132510900000000049e+02	1.005948499999999912e+00	4.190292800000000248e-03	9.952747299999999964e-01	-7.525075700000000232e-04	1.016557200000000050e+00	9.034931899999999391e-03
2.251714399999999898e+02	1.006233699999999898e+00	3.836510500000000178e-03	9.962637100000000245e-01	-9.868396699999999137e-04	1.016075099999999898e+00	8.614759399999999748e-03
2.377581199999999910e+02	1.006474000000000091e+00	3.481278999999999884e-03	9.969744999999999857e-01	-1.238391799999999984e-03	1.015570899999999943e+00	8.240926799999999386e-03
2.510483700000000056e+02	1.006599100000000080e+00	3.145397900000000170e-03	9.976609800000000305e-01	-1.499312700000000062e-03	1.015098999999999974e+00	7.892941699999999478e-03
2.650815200000000118e+02	1.006566999999999990e+00	2.884907899999999796e-03	9.980981199999999776e-01	-1.661049800000000002e-03	1.014650199999999947e+00	7.536389400000000245e-03
2.798990999999999758e+02	1.006474000000000091e+00	2.606118199999999784e-03	9.985679200000000533e-01	-1.766857200000000001e-03	1.014240800000000053e+00	7.160042600000000347e-03
2.955449499999999716e+02	1.006385000000000085e+00	2.445044099999999984e-03	9.988579499999999944e-01	-1.817588399999999892e-03	1.013856899999999950e+00	6.873397600000000045e-03
3.120653800000000047e+02	1.006316500000000058e+00	2.336086600000000010e-03	9.991769000000000345e-01	-1.834291999999999954e-03	1.013602700000000079e+00	6.596838699999999639e-03
3.295092700000000150e+02	1.005977899999999980e+00	2.256530499999999818e-03	9.989993600000000029e-01	-1.771055199999999963e-03	1.013049300000000041e+00	6.419798699999999803e-03
3.479282499999999914e+02	1.005709299999999917e+00	2.301983200000000136e-03	9.989328400000000441e-01	-1.639609399999999908e-03	1.012697299999999911e+00	6.350207899999999947e-03
3.673768099999999777e+02	1.005342200000000075e+00	2.498636399999999962e-03	9.986777500000000307e-01	-1.485786399999999927e-03	1.012215800000000110e+00	6.544947100000000212e-03
3.879125099999999975e+02	1.004877500000000090e+00	2.931904400000000070e-03	9.981491999999999587e-01	-1.153310700000000077e-03	1.011763299999999921e+00	7.126894699999999742e-03
4.095961199999999849e+02	1.006492699999999907e+00	5.244113699999999705e-03	9.995304900000000492e-01	8.122302399999999567e-04	1.013759999999999994e+00	9.788785899999999374e-03
4.324918000000000120e+02	1.004297400000000007e+00	4.870776099999999872e-03	9.975389000000000062e-01	1.260651100000000043e-05	1.011384199999999955e+00	9.841504399999999320e-03
4.566673099999999863e+02	1.005628799999999989e+00	7.684712300000000329e-03	9.984409300000000043e-01	1.836548199999999981e-03	1.012971199999999961e+00	1.353983999999999917e-02
4.821941899999999919e+02	1.010265900000000050e+00	4.930264299999999843e-03	1.002423099999999900e+00	2.763261699999999951e-04	1.018156300000000014e+00	9.679546199999999878e-03
5.091479699999999866e+02	1.008293499999999954e+00	5.704713699999999950e-03	1.000761500000000082e+00	3.495672400000000260e-04	1.016140199999999938e+00	1.110976500000000061e-02
5.376084299999999985e+02	1.010578299999999929e+00	6.587060500000000221e-03	1.002183999999999964e+00	9.586260700000000115e-04	1.019125999999999976e+00	1.215024599999999996e-02
5.676597699999999804e+02	1.008453800000000067e+00	4.351612399999999631e-03	1.000709899999999930e+00	-1.356868299999999892e-03	1.016537999999999942e+00	9.964865599999999171e-03
5.993909200000000510e+02	1.008018800000000104e+00	5.499406400000000222e-03	9.999761900000000425e-01	-8.859472100000000214e-04	1.016176200000000085e+00	1.192376499999999936e-02
6.328957900000000336e+02	1.008762099999999995e+00	6.324534500000000316e-03	1.000288599999999972e+00	-4.843153199999999958e-04	1.017161999999999900e+00	1.316719799999999975e-02
6.682735300000000507e+02	1.009519199999999950e+00	6.352325500000000416e-03	1.000775699999999935e+00	-6.061809899999999474e-04	1.018288599999999988e+00	1.341726799999999956e-02
7.056288100000000441e+02	1.010049999999999892e+00	6.015961099999999825e-03	1.001111000000000084e+00	-9.962863099999999354e-04	1.019103300000000045e+00	1.315308100000000049e-02
7.450721899999999778e+02	1.010181800000000019e+00	5.500437599999999719e-03	1.001175799999999949e+00	-1.444324400000000005e-03	1.019334900000000044e+00	1.270889899999999920e-02
7.867203799999999774e+02	1.010005999999999959e+00	5.127315399999999614e-03	1.001014000000000070e+00	-1.978054099999999958e-03	1.019218500000000027e+00	1.233807299999999975e-02
8.306966200000000526e+02	1.009658699999999909e+00	4.818101499999999718e-03	1.000664299999999951e+00	-2.447430500000000175e-03	1.018834199999999912e+00	1.209665000000000046e-02
8.771310700000000224e+02	1.009191900000000031e+00	4.605218200000000400e-03	1.000163899999999995e+00	-2.741771100000000086e-03	1.018424199999999891e+00	1.208306800000000063e-02
9.261611100000000079e+02	1.008981799999999929e+00	4.536445400000000197e-03	9.997639799999999966e-01	-3.072432400000000077e-03	1.018312499999999954e+00	1.218690799999999977e-02
9.779318399999999656e+02	1.008562799999999982e+00	4.209941000000000030e-03	9.993460100000000068e-01	-3.515085199999999892e-03	1.017966200000000043e+00	1.199478799999999928e-02
1.032596500000000106e+03	1.008102300000000007e+00	3.825155399999999924e-03	9.989056299999999888e-01	-3.972488199999999782e-03	1.017622100000000085e+00	1.177582299999999950e-02
1.090316700000000083e+03	1.007560999999999929e+00	3.457781799999999888e-03	9.983324599999999771e-01	-4.373005099999999722e-03	1.017227000000000103e+00	1.165829900000000044e-02
1.151263500000000022e+03	1.006964100000000029e+00	3.197364399999999985e-03	9.977387800000000473e-01	-4.911628599999999685e-03	1.016710999999999920e+00	1.145550300000000056e-02
1.215616999999999962e+03	1.006428399999999890e+00	2.748755900000000169e-03	9.970540100000000461e-01	-5.547960499999999955e-03	1.016332400000000025e+00	1.123319899999999927e-02
1.283567800000000034e+03	1.005890200000000068e+00	2.264661500000000015e-03	9.963066800000000001e-01	-6.395803000000000252e-03	1.015894400000000086e+00	1.099738700000000083e-02
1.355317000000000007e+03	1.005307699999999915e+00	1.767954599999999954e-03	9.955048699999999862e-01	-7.210399900000000022e-03	1.015565800000000074e+00	1.079626799999999949e-02
1.431076700000000073e+03	1.004809300000000016e+00	1.293781400000000061e-03	9.947132199999999536e-01	-8.057059899999999969e-03	1.015285500000000063e+00	1.063823099999999973e-02
1.511071300000000065e+03	1.004343100000000044e+00	7.085647899999999479e-04	9.939620200000000017e-01	-9.017740300000000320e-03	1.014964100000000036e+00	1.046651000000000005e-02
1.595537499999999909e+03	1.003788200000000019e+00	1.665585900000000007e-04	9.932899200000000484e-01	-1.007374800000000042e-02	1.014849300000000065e+00	1.028035599999999918e-02
1.684725200000000086e+03	1.003444199999999897e+00	-4.044444700000000251e-04	9.926447600000000149e-01	-1.110256400000000053e-02	1.014871000000000079e+00	1.010965800000000053e-02
1.778898200000000088e+03	1.003196699999999941e+00	-1.115606500000000060e-03	9.920382100000000314e-01	-1.228432900000000008e-02	1.015035200000000026e+00	1.002883299999999915e-02
1.878335399999999936e+03	1.003023400000000009e+00	-1.779105599999999997e-03	9.915249699999999500e-01	-1.347817400000000075e-02	1.015300000000000091e+00	9.987871100000000196e-03
1.983330999999999904e+03	1.003000200000000008e+00	-2.448888099999999794e-03	9.909796400000000505e-01	-1.476565699999999974e-02	1.015731600000000068e+00	9.978369500000000558e-03
2.094195600000000013e+03	1.003138599999999991e+00	-3.176710899999999997e-03	9.906425300000000211e-01	-1.608883399999999977e-02	1.016177000000000108e+00	9.812728399999999865e-03
