#Frequency	Median Mag	Phase (Rad)	-1 Sigma Mag	-1 Sigma Phase	+1 Sigma Mag	+1 Sigma Phase
5.000000000000000000e+00	1.080004799999999987e+00	-7.207364700000000457e-02	7.849473099999999537e-01	-3.521692200000000050e-01	1.387003699999999951e+00	1.757096499999999950e-01
5.279491000000000156e+00	1.090603999999999907e+00	-7.281553000000000331e-02	8.226316200000000078e-01	-3.275228000000000028e-01	1.368442600000000064e+00	1.582705299999999926e-01
5.574605000000000032e+00	1.098789100000000074e+00	-7.248770899999999739e-02	8.570860500000000437e-01	-3.036994800000000216e-01	1.349047700000000072e+00	1.382820999999999911e-01
5.886215299999999928e+00	1.103841599999999978e+00	-7.142138400000000442e-02	8.880035800000000146e-01	-2.797992300000000099e-01	1.326398799999999989e+00	1.201263399999999981e-01
6.215244099999999605e+00	1.107601899999999917e+00	-7.091788999999999732e-02	9.157082899999999803e-01	-2.584989999999999788e-01	1.300939199999999962e+00	1.035949800000000032e-01
6.562665100000000251e+00	1.107581900000000008e+00	-6.931595200000000012e-02	9.364738900000000310e-01	-2.383675100000000047e-01	1.282727399999999962e+00	8.665953399999999640e-02
6.929506199999999616e+00	1.104427599999999954e+00	-6.713270999999999822e-02	9.522877800000000281e-01	-2.153684600000000116e-01	1.260968899999999948e+00	7.205355800000000366e-02
7.316853100000000332e+00	1.098634300000000064e+00	-6.319876900000000186e-02	9.621155999999999597e-01	-1.940715799999999935e-01	1.238978399999999924e+00	6.072142099999999765e-02
7.725851999999999720e+00	1.090447900000000025e+00	-5.742664599999999786e-02	9.659065100000000514e-01	-1.732629300000000094e-01	1.216121699999999972e+00	5.005930599999999786e-02
8.157713100000000495e+00	1.079993399999999992e+00	-5.325517899999999971e-02	9.668495900000000365e-01	-1.544005699999999870e-01	1.194989999999999997e+00	4.163090900000000066e-02
8.613714599999999777e+00	1.068862500000000049e+00	-4.614553200000000299e-02	9.658651400000000109e-01	-1.348473000000000033e-01	1.173568399999999956e+00	3.557633799999999902e-02
9.095205699999999283e+00	1.057763699999999973e+00	-3.949724899999999816e-02	9.634225199999999489e-01	-1.154453500000000021e-01	1.153352699999999897e+00	3.204033299999999723e-02
9.603611199999999570e+00	1.047187899999999949e+00	-3.342369199999999790e-02	9.613099800000000084e-01	-9.758026499999999936e-02	1.134070200000000028e+00	2.828331300000000090e-02
1.014043599999999934e+01	1.037268400000000090e+00	-2.710749100000000092e-02	9.594326600000000482e-01	-8.092644400000000016e-02	1.116439799999999982e+00	2.549237400000000167e-02
1.070726799999999912e+01	1.027727999999999975e+00	-2.094787799999999964e-02	9.579762699999999631e-01	-6.589492399999999361e-02	1.097658400000000034e+00	2.268724299999999930e-02
1.130578500000000020e+01	1.020034600000000014e+00	-1.575866000000000072e-02	9.575911900000000365e-01	-5.241968000000000322e-02	1.081525199999999964e+00	1.974666200000000163e-02
1.193775800000000054e+01	1.012164099999999900e+00	-1.142381399999999915e-02	9.578621800000000075e-01	-4.067868899999999704e-02	1.066648800000000064e+00	1.707667699999999844e-02
1.260505700000000040e+01	1.006111900000000059e+00	-7.752119099999999624e-03	9.593825099999999662e-01	-3.028220300000000059e-02	1.052783800000000047e+00	1.510542200000000029e-02
1.330965699999999963e+01	1.001417100000000060e+00	-4.804654200000000284e-03	9.617039099999999952e-01	-2.218968199999999877e-02	1.041174299999999997e+00	1.315212999999999972e-02
1.405364299999999922e+01	9.979794100000000112e-01	-2.748894699999999795e-03	9.648873300000000430e-01	-1.600804899999999989e-02	1.030969000000000024e+00	1.079003299999999922e-02
1.483921600000000041e+01	9.959930799999999751e-01	-1.205668000000000017e-03	9.673425900000000022e-01	-1.197852599999999976e-02	1.024621000000000004e+00	9.455064100000000471e-03
1.566870100000000043e+01	9.945728900000000428e-01	-5.382119099999999696e-04	9.692860599999999494e-01	-9.739801600000000392e-03	1.020821900000000060e+00	8.417261800000000807e-03
1.654455300000000051e+01	9.944226699999999530e-01	-3.587666699999999794e-04	9.684535800000000361e-01	-8.979703900000000211e-03	1.020696400000000059e+00	8.029937699999999817e-03
1.746936399999999878e+01	9.946037199999999689e-01	-5.347544699999999887e-04	9.659053300000000064e-01	-9.352204799999999651e-03	1.023328400000000027e+00	8.094404499999999225e-03
1.844586999999999932e+01	9.948909900000000306e-01	-7.503857199999999479e-04	9.622133699999999568e-01	-1.040572799999999951e-02	1.027156900000000039e+00	8.590015899999999330e-03
1.947696099999999930e+01	9.954720400000000025e-01	-9.164669899999999510e-04	9.588324000000000291e-01	-1.139195200000000033e-02	1.032063500000000023e+00	9.399589800000000134e-03
2.056568800000000152e+01	9.957505100000000331e-01	-1.009062399999999943e-03	9.550922200000000473e-01	-1.261081499999999918e-02	1.036809700000000056e+00	1.087499199999999999e-02
2.171527199999999880e+01	9.960521599999999642e-01	-6.007714700000000175e-04	9.521470100000000159e-01	-1.414787600000000020e-02	1.041539100000000051e+00	1.305144500000000006e-02
2.292911700000000152e+01	9.963591800000000109e-01	-2.058802999999999946e-04	9.498117099999999757e-01	-1.619384499999999838e-02	1.045817500000000067e+00	1.587109700000000068e-02
2.421081300000000169e+01	9.972872999999999877e-01	3.005065499999999968e-04	9.473415400000000375e-01	-1.843421900000000169e-02	1.048682499999999962e+00	1.971855900000000009e-02
2.556415399999999849e+01	9.986502299999999721e-01	8.078914400000000110e-04	9.466959099999999738e-01	-2.144521599999999958e-02	1.050425399999999954e+00	2.438721699999999923e-02
2.699314400000000091e+01	1.000190200000000029e+00	1.178320799999999901e-03	9.475577800000000162e-01	-2.530551699999999959e-02	1.051673700000000045e+00	3.004863300000000167e-02
2.850201200000000057e+01	1.001608199999999949e+00	7.338680999999999677e-04	9.497621299999999822e-01	-3.014634700000000042e-02	1.052955300000000038e+00	3.593839699999999693e-02
3.009522300000000072e+01	1.002739599999999953e+00	4.852200899999999854e-04	9.530079999999999663e-01	-3.605129399999999762e-02	1.052821100000000065e+00	4.212776700000000346e-02
3.177749100000000126e+01	1.004085200000000011e+00	-2.019249799999999872e-04	9.576045899999999778e-01	-4.383156299999999700e-02	1.051928200000000091e+00	4.791814199999999691e-02
3.355379599999999840e+01	1.004780599999999913e+00	-1.647762600000000086e-03	9.620770800000000289e-01	-5.383181299999999919e-02	1.049488100000000035e+00	5.426884399999999664e-02
3.542939200000000000e+01	1.005686300000000033e+00	-3.166609600000000121e-03	9.649218800000000096e-01	-6.509680499999999370e-02	1.048820899999999945e+00	6.169508199999999831e-02
3.740983200000000153e+01	1.005707899999999988e+00	-5.366924399999999616e-03	9.647073600000000138e-01	-7.895274400000000525e-02	1.049028999999999989e+00	6.879148899999999733e-02
3.950097399999999936e+01	1.005019200000000001e+00	-7.310635700000000028e-03	9.565101700000000484e-01	-9.232018399999999958e-02	1.053773000000000071e+00	7.481068700000000071e-02
4.170900699999999972e+01	1.000977599999999912e+00	-7.380160000000000192e-03	9.403094199999999514e-01	-9.535939799999999800e-02	1.063729099999999983e+00	7.534136299999999453e-02
4.404046499999999753e+01	9.984104499999999494e-01	-5.118056999999999641e-03	9.248976899999999945e-01	-8.406503299999999734e-02	1.073799600000000076e+00	6.444418999999999842e-02
4.650224699999999700e+01	9.969565400000000022e-01	-2.235675800000000175e-03	9.196402000000000188e-01	-6.394123000000000168e-02	1.075918799999999953e+00	5.289537600000000089e-02
4.910163899999999870e+01	9.971618899999999952e-01	-1.827190899999999894e-03	9.252256100000000316e-01	-4.973062500000000052e-02	1.071508700000000092e+00	4.359074799999999861e-02
5.184633199999999675e+01	9.986361400000000055e-01	-2.106469100000000171e-03	9.362238899999999475e-01	-4.435183999999999654e-02	1.062357299999999949e+00	4.011122599999999983e-02
5.474444799999999844e+01	9.999570399999999637e-01	-2.830110500000000001e-03	9.472675099999999793e-01	-4.308461100000000182e-02	1.053204100000000087e+00	3.809928700000000251e-02
5.780456399999999917e+01	1.000842100000000068e+00	-3.750473900000000135e-03	9.574875900000000550e-01	-4.326238699999999937e-02	1.045237200000000088e+00	3.612108700000000311e-02
6.103573500000000251e+01	1.001252100000000089e+00	-4.518744699999999691e-03	9.651862199999999836e-01	-4.297855899999999951e-02	1.037855999999999890e+00	3.395551499999999862e-02
6.444752200000000641e+01	1.001343700000000059e+00	-5.560925900000000290e-03	9.708288699999999549e-01	-4.323880799999999663e-02	1.031802399999999897e+00	3.218858599999999820e-02
6.805002199999999846e+01	1.001160199999999945e+00	-6.061664199999999662e-03	9.753096399999999777e-01	-4.279338800000000165e-02	1.026544700000000088e+00	3.039796900000000038e-02
7.185389600000000598e+01	1.000905699999999898e+00	-6.366429100000000306e-03	9.792378900000000552e-01	-4.138223299999999744e-02	1.022334199999999971e+00	2.938847799999999913e-02
7.587039900000000614e+01	1.000636599999999987e+00	-6.452628000000000183e-03	9.822863699999999643e-01	-4.056345499999999826e-02	1.018431599999999992e+00	2.809284800000000012e-02
8.011141700000000299e+01	1.000302599999999931e+00	-6.560722599999999939e-03	9.846872899999999929e-01	-3.974307500000000271e-02	1.015343000000000107e+00	2.698509699999999956e-02
8.458950099999999850e+01	1.000049399999999977e+00	-6.035058599999999600e-03	9.866191699999999898e-01	-3.834772799999999759e-02	1.013059500000000002e+00	2.634358300000000028e-02
8.931790100000000621e+01	9.997460599999999920e-01	-5.856334599999999703e-03	9.877429199999999687e-01	-3.722586600000000329e-02	1.011479400000000028e+00	2.559008299999999958e-02
9.431060999999999694e+01	9.993710099999999485e-01	-5.623303900000000376e-03	9.880049300000000034e-01	-3.579283199999999665e-02	1.010579600000000022e+00	2.489378600000000108e-02
9.958240299999999934e+01	9.990755399999999842e-01	-5.165162899999999925e-03	9.877979300000000462e-01	-3.478357599999999661e-02	1.010224900000000092e+00	2.459656400000000132e-02
1.051488800000000055e+02	9.986347899999999944e-01	-4.667082900000000222e-03	9.870198700000000214e-01	-3.372327900000000184e-02	1.010356599999999938e+00	2.448479099999999881e-02
1.110265100000000018e+02	9.981204000000000187e-01	-4.118491299999999834e-03	9.859667899999999818e-01	-3.252165499999999654e-02	1.010866400000000054e+00	2.426104800000000034e-02
1.172326900000000052e+02	9.978871200000000163e-01	-3.539280899999999990e-03	9.845337400000000461e-01	-3.097744399999999981e-02	1.011319700000000044e+00	2.402603400000000167e-02
1.237857900000000058e+02	9.974391500000000521e-01	-2.863698100000000059e-03	9.828547100000000203e-01	-2.970042700000000147e-02	1.011886099999999900e+00	2.405003899999999875e-02
1.307051899999999875e+02	9.968590899999999477e-01	-2.498326899999999805e-03	9.809664000000000161e-01	-2.821379699999999879e-02	1.012413699999999972e+00	2.381898400000000138e-02
1.380113800000000026e+02	9.962170599999999876e-01	-1.693233099999999968e-03	9.789911300000000427e-01	-2.667740899999999915e-02	1.013307200000000075e+00	2.368681900000000132e-02
1.457259599999999864e+02	9.955280199999999580e-01	-6.385411500000000079e-04	9.767718899999999760e-01	-2.481377099999999836e-02	1.013879600000000103e+00	2.364334099999999828e-02
1.538717800000000011e+02	9.948565000000000325e-01	3.054251500000000077e-04	9.746091599999999744e-01	-2.297795899999999919e-02	1.014920299999999997e+00	2.352708200000000124e-02
1.624729399999999941e+02	9.943470699999999995e-01	1.395296600000000067e-03	9.725756899999999927e-01	-2.070011999999999894e-02	1.015781899999999904e+00	2.336269200000000087e-02
1.715548799999999972e+02	9.940816199999999991e-01	2.771023100000000097e-03	9.706523900000000316e-01	-1.793509800000000001e-02	1.016596800000000078e+00	2.319610199999999969e-02
1.811444899999999905e+02	9.938237399999999555e-01	4.162323100000000359e-03	9.689497700000000435e-01	-1.459172400000000036e-02	1.017703000000000024e+00	2.269758300000000034e-02
1.912701399999999978e+02	9.942297100000000443e-01	5.428689999999999904e-03	9.688396700000000417e-01	-1.082148299999999980e-02	1.018944499999999920e+00	2.163441099999999923e-02
2.019617900000000077e+02	9.948152599999999790e-01	6.216025899999999896e-03	9.695380799999999688e-01	-7.707210800000000202e-03	1.019417900000000099e+00	2.030482899999999993e-02
2.132510900000000049e+02	9.953537700000000266e-01	6.706603799999999622e-03	9.708724499999999979e-01	-5.245959300000000228e-03	1.019598999999999922e+00	1.905294999999999905e-02
2.251714399999999898e+02	9.960325799999999452e-01	6.886872100000000080e-03	9.728373900000000241e-01	-3.858796700000000079e-03	1.019077199999999905e+00	1.769728099999999874e-02
2.377581199999999910e+02	9.964147300000000262e-01	6.671587300000000192e-03	9.751218699999999462e-01	-3.399086899999999821e-03	1.017932199999999954e+00	1.699295199999999867e-02
2.510483700000000056e+02	9.967207000000000150e-01	6.455130600000000100e-03	9.775967100000000354e-01	-3.661091600000000203e-03	1.016037499999999927e+00	1.634269799999999925e-02
2.650815200000000118e+02	9.968535400000000379e-01	5.928900200000000037e-03	9.798879999999999812e-01	-4.222305099999999582e-03	1.014209099999999975e+00	1.588039100000000065e-02
2.798990999999999758e+02	9.966311300000000317e-01	5.297616899999999657e-03	9.820353200000000449e-01	-5.222434599999999962e-03	1.011761499999999980e+00	1.528560200000000056e-02
2.955449499999999716e+02	9.948827500000000379e-01	4.080572600000000397e-03	9.826200499999999671e-01	-8.745948899999999790e-03	1.007005200000000045e+00	1.678462199999999904e-02
3.120653800000000047e+02	9.952160700000000082e-01	6.079020499999999820e-03	9.803945299999999863e-01	-7.387808400000000185e-03	1.009750900000000007e+00	1.930371100000000117e-02
3.295092700000000150e+02	9.965539100000000428e-01	8.213000300000000350e-03	9.769970999999999517e-01	-4.311626800000000100e-03	1.016178100000000084e+00	2.024892199999999906e-02
3.479282499999999914e+02	9.973535399999999829e-01	6.949872400000000304e-03	9.809360700000000488e-01	-4.271330599999999603e-03	1.013194399999999940e+00	1.780995700000000126e-02
3.673768099999999777e+02	9.972158100000000358e-01	6.520087100000000399e-03	9.823647800000000485e-01	-4.589141899999999580e-03	1.011608300000000016e+00	1.732240399999999958e-02
3.879125099999999975e+02	9.971581600000000156e-01	6.574593200000000172e-03	9.830520699999999445e-01	-4.278170900000000283e-03	1.010332999999999926e+00	1.718254400000000098e-02
4.095961199999999849e+02	9.970411300000000532e-01	6.780861499999999743e-03	9.840802699999999792e-01	-3.641306600000000174e-03	1.009224700000000086e+00	1.705512699999999979e-02
4.324918000000000120e+02	9.966642599999999685e-01	7.596157099999999683e-03	9.843157399999999946e-01	-4.309544799999999627e-03	1.008499199999999929e+00	1.916910600000000173e-02
4.566673099999999863e+02	9.967106300000000418e-01	7.165862700000000078e-03	9.853209499999999732e-01	-4.323781500000000236e-03	1.007718899999999973e+00	1.825050099999999884e-02
4.821941899999999919e+02	9.984065699999999932e-01	8.817766100000000787e-03	9.853327499999999795e-01	-1.610430400000000071e-03	1.011072299999999924e+00	1.893214600000000039e-02
5.091479699999999866e+02	9.982637300000000158e-01	8.691990199999999334e-03	9.865625900000000170e-01	-1.701025699999999911e-03	1.009742499999999987e+00	1.859213599999999869e-02
5.376084299999999985e+02	9.982311600000000062e-01	8.990098900000000059e-03	9.870992699999999731e-01	-1.594243699999999984e-03	1.009244899999999889e+00	1.902706499999999926e-02
5.676597699999999804e+02	9.998312299999999597e-01	8.768252400000000821e-03	9.882468899999999890e-01	-4.211225599999999960e-04	1.011007200000000106e+00	1.736726099999999842e-02
5.993909200000000510e+02	9.999511700000000003e-01	8.605165899999999563e-03	9.889653600000000155e-01	-5.549289200000000069e-04	1.010485000000000078e+00	1.735002500000000156e-02
6.328957900000000336e+02	1.000178699999999976e+00	8.693216199999999338e-03	9.894301399999999580e-01	-8.072104600000000506e-04	1.010786900000000044e+00	1.786150499999999974e-02
6.682735300000000507e+02	1.000638499999999986e+00	8.913362200000000263e-03	9.895626600000000384e-01	-9.148549400000000314e-04	1.011252700000000004e+00	1.823028900000000022e-02
7.056288100000000441e+02	1.001141599999999965e+00	9.014099899999999249e-03	9.899401799999999474e-01	-1.132045199999999995e-03	1.012026099999999929e+00	1.851812300000000092e-02
7.450721899999999778e+02	1.001838800000000029e+00	8.988513000000000058e-03	9.904134999999999467e-01	-1.499524199999999977e-03	1.012847499999999901e+00	1.868518699999999894e-02
7.867203799999999774e+02	1.002406399999999920e+00	8.872125999999999277e-03	9.905510400000000493e-01	-2.066697000000000152e-03	1.013590999999999909e+00	1.867521299999999954e-02
8.306966200000000526e+02	1.003021399999999952e+00	8.572951800000000802e-03	9.909144699999999917e-01	-2.404624599999999942e-03	1.014374099999999945e+00	1.853532100000000044e-02
8.771310700000000224e+02	1.003644800000000004e+00	8.311903100000000294e-03	9.911170099999999650e-01	-2.775587899999999806e-03	1.015022300000000044e+00	1.834803600000000159e-02
9.261611100000000079e+02	1.004075100000000109e+00	7.902459500000000303e-03	9.914991100000000168e-01	-3.353923100000000008e-03	1.015463800000000028e+00	1.825304200000000057e-02
9.779318399999999656e+02	1.004419299999999904e+00	7.556208299999999690e-03	9.919940200000000319e-01	-3.880992299999999878e-03	1.016032599999999952e+00	1.819764000000000104e-02
1.032596500000000106e+03	1.004734299999999969e+00	7.215571500000000221e-03	9.922294499999999573e-01	-4.468593699999999676e-03	1.016611200000000048e+00	1.809886100000000081e-02
1.090316700000000083e+03	1.005004699999999973e+00	6.933428299999999829e-03	9.923440700000000225e-01	-4.962250500000000251e-03	1.017108899999999982e+00	1.792311699999999883e-02
1.151263500000000022e+03	1.005244699999999991e+00	6.674005299999999884e-03	9.924453500000000039e-01	-5.428945600000000329e-03	1.017445699999999897e+00	1.790493699999999924e-02
1.215616999999999962e+03	1.005272500000000013e+00	6.393184100000000140e-03	9.924361499999999614e-01	-5.820418699999999751e-03	1.017697199999999969e+00	1.798883600000000110e-02
1.283567800000000034e+03	1.005295199999999944e+00	6.205283800000000079e-03	9.923719500000000027e-01	-6.038490799999999929e-03	1.017856000000000094e+00	1.808983499999999855e-02
1.355317000000000007e+03	1.005095300000000025e+00	6.170780800000000114e-03	9.922151399999999954e-01	-6.475080700000000050e-03	1.017933600000000105e+00	1.840904399999999941e-02
1.431076700000000073e+03	1.004756600000000111e+00	6.224007299999999819e-03	9.916538099999999689e-01	-6.729849700000000226e-03	1.017688499999999996e+00	1.874683599999999936e-02
1.511071300000000065e+03	1.004216299999999951e+00	6.362043300000000054e-03	9.909323899999999963e-01	-6.890366299999999868e-03	1.017216399999999910e+00	1.933464299999999858e-02
1.595537499999999909e+03	1.003451499999999941e+00	6.749613399999999930e-03	9.898735199999999512e-01	-7.167257399999999931e-03	1.016736099999999920e+00	1.995219999999999980e-02
1.684725200000000086e+03	1.002560899999999977e+00	7.051543999999999868e-03	9.886551500000000381e-01	-7.249026500000000164e-03	1.016115199999999996e+00	2.087543000000000037e-02
1.778898200000000088e+03	1.001360199999999923e+00	7.707892699999999847e-03	9.871827899999999767e-01	-7.430522299999999837e-03	1.015088999999999908e+00	2.179199399999999856e-02
1.878335399999999936e+03	1.000013400000000052e+00	8.396976199999999640e-03	9.854518899999999970e-01	-7.247752799999999940e-03	1.014043500000000098e+00	2.306891299999999992e-02
1.983330999999999904e+03	9.983732600000000401e-01	9.129035000000000621e-03	9.831938099999999459e-01	-7.210969700000000038e-03	1.012946499999999972e+00	2.446041800000000113e-02
2.094195600000000013e+03	9.965156400000000358e-01	9.923341299999999254e-03	9.808012799999999975e-01	-7.191068600000000317e-03	1.011477399999999971e+00	2.593672699999999970e-02
