#Frequency	Median Mag	Phase (Rad)	-1 Sigma Mag	-1 Sigma Phase	+1 Sigma Mag	+1 Sigma Phase
5.000000000000000000e+00	1.043818099999999971e+00	-7.316920900000000068e-03	9.941075600000000012e-01	-9.605843000000000020e-02	1.096902100000000102e+00	8.076833199999999824e-02
5.279491000000000156e+00	1.043537299999999890e+00	-1.159231600000000008e-02	9.928467899999999791e-01	-8.619652299999999712e-02	1.096783199999999958e+00	6.248038000000000203e-02
5.574605000000000032e+00	1.042136699999999916e+00	-1.548368399999999930e-02	9.925166300000000108e-01	-7.626445199999999647e-02	1.093640200000000062e+00	4.611084000000000016e-02
5.886215299999999928e+00	1.040291800000000100e+00	-1.829100499999999907e-02	9.937680599999999531e-01	-6.800126300000000623e-02	1.088222100000000081e+00	3.208229700000000267e-02
6.215244099999999605e+00	1.037709200000000109e+00	-2.006959599999999858e-02	9.950385000000000479e-01	-6.009052599999999827e-02	1.081487499999999935e+00	2.070975699999999878e-02
6.562665100000000251e+00	1.035261100000000045e+00	-2.099876499999999910e-02	9.972748200000000063e-01	-5.334958199999999956e-02	1.074036699999999955e+00	1.214036700000000087e-02
6.929506199999999616e+00	1.033094900000000038e+00	-2.130721000000000004e-02	9.993768400000000440e-01	-4.820936700000000297e-02	1.067549000000000081e+00	5.635613900000000127e-03
7.316853100000000332e+00	1.031158100000000077e+00	-2.175838199999999972e-02	1.000633700000000070e+00	-4.409828300000000201e-02	1.062246900000000105e+00	5.436940300000000451e-04
7.725851999999999720e+00	1.028471099999999971e+00	-2.202995300000000142e-02	1.000177799999999895e+00	-4.033476800000000001e-02	1.059182099999999904e+00	-3.337779400000000056e-03
8.157713100000000495e+00	1.026448299999999980e+00	-2.230130699999999938e-02	9.985815200000000003e-01	-3.749284199999999845e-02	1.057632399999999917e+00	-6.618454400000000314e-03
8.613714599999999777e+00	1.024350400000000105e+00	-2.269282099999999844e-02	9.964312899999999695e-01	-3.574745000000000006e-02	1.057280900000000079e+00	-8.977675200000000133e-03
9.095205699999999283e+00	1.022483800000000054e+00	-2.312990599999999869e-02	9.947499800000000336e-01	-3.680330400000000196e-02	1.056179900000000060e+00	-9.260608300000000570e-03
9.603611199999999570e+00	1.020874499999999907e+00	-2.342015700000000047e-02	9.932206799999999669e-01	-4.065078400000000231e-02	1.054772999999999961e+00	-6.760459499999999650e-03
1.014043599999999934e+01	1.019310299999999891e+00	-2.365459400000000101e-02	9.924080800000000258e-01	-4.550592099999999779e-02	1.052226300000000059e+00	-3.284882399999999956e-03
1.070726799999999912e+01	1.018001399999999945e+00	-2.391698299999999930e-02	9.925733100000000420e-01	-5.096481199999999823e-02	1.048642800000000097e+00	4.692189499999999775e-04
1.130578500000000020e+01	1.016591100000000081e+00	-2.443168999999999896e-02	9.931298699999999702e-01	-5.631160400000000121e-02	1.044186899999999918e+00	4.315914900000000429e-03
1.193775800000000054e+01	1.014998599999999973e+00	-2.476728599999999947e-02	9.939845699999999562e-01	-6.113844300000000065e-02	1.039006300000000049e+00	7.779279800000000328e-03
1.260505700000000040e+01	1.013416700000000059e+00	-2.505800199999999936e-02	9.946467399999999737e-01	-6.536591499999999666e-02	1.033624300000000051e+00	1.071739099999999972e-02
1.330965699999999963e+01	1.011362400000000106e+00	-2.509987099999999929e-02	9.946438899999999750e-01	-6.836014199999999874e-02	1.028591699999999998e+00	1.264520400000000017e-02
1.405364299999999922e+01	1.008771800000000107e+00	-2.531274899999999897e-02	9.932913500000000173e-01	-7.010148200000000662e-02	1.024453000000000058e+00	1.360562499999999966e-02
1.483921600000000041e+01	1.005706100000000047e+00	-2.523034000000000041e-02	9.897157899999999842e-01	-7.018082800000000065e-02	1.021753600000000040e+00	1.405555799999999925e-02
1.566870100000000043e+01	1.002261599999999975e+00	-2.489111100000000049e-02	9.844541399999999776e-01	-6.873476000000000585e-02	1.020696100000000106e+00	1.348921500000000058e-02
1.654455300000000051e+01	9.991066299999999956e-01	-2.406454400000000021e-02	9.782889900000000249e-01	-6.573612299999999353e-02	1.020838300000000087e+00	1.236911599999999944e-02
1.746936399999999878e+01	9.962575999999999654e-01	-2.270004800000000045e-02	9.721205200000000435e-01	-6.116763000000000061e-02	1.021217700000000006e+00	1.071625699999999987e-02
1.844586999999999932e+01	9.935996599999999956e-01	-2.088689200000000065e-02	9.667557500000000248e-01	-5.461389600000000205e-02	1.020961400000000019e+00	8.812889600000000170e-03
1.947696099999999930e+01	9.915249699999999500e-01	-1.864731799999999953e-02	9.625727600000000272e-01	-4.753895400000000132e-02	1.020599800000000057e+00	6.963503099999999828e-03
2.056568800000000152e+01	9.899889099999999997e-01	-1.602715999999999863e-02	9.602214999999999501e-01	-4.022995099999999991e-02	1.019527400000000084e+00	5.659647900000000162e-03
2.171527199999999880e+01	9.890126999999999668e-01	-1.327761300000000061e-02	9.594841899999999590e-01	-3.336277800000000265e-02	1.017970400000000053e+00	4.769707199999999835e-03
2.292911700000000152e+01	9.886571400000000454e-01	-1.053869200000000055e-02	9.603436300000000037e-01	-2.699000000000000010e-02	1.016142899999999960e+00	4.795108000000000183e-03
2.421081300000000169e+01	9.885609499999999938e-01	-7.752461999999999895e-03	9.622666399999999509e-01	-2.234824499999999922e-02	1.014354600000000106e+00	5.740853399999999891e-03
2.556415399999999849e+01	9.890922599999999454e-01	-5.160827300000000312e-03	9.650967099999999688e-01	-1.869995899999999864e-02	1.012574800000000108e+00	7.670716699999999971e-03
2.699314400000000091e+01	9.898471599999999482e-01	-2.852439500000000187e-03	9.681902500000000300e-01	-1.620010699999999831e-02	1.010927899999999990e+00	1.013059799999999934e-02
2.850201200000000057e+01	9.906579800000000491e-01	-6.973712700000000205e-04	9.716868600000000411e-01	-1.420797199999999927e-02	1.009662999999999977e+00	1.253477499999999974e-02
3.009522300000000072e+01	9.920304800000000478e-01	1.099893700000000030e-03	9.751567300000000271e-01	-1.270810900000000042e-02	1.008813500000000030e+00	1.485830299999999979e-02
3.177749100000000126e+01	9.936189800000000405e-01	2.726809199999999812e-03	9.783487299999999998e-01	-1.149245500000000038e-02	1.008666099999999899e+00	1.688863000000000170e-02
3.355379599999999840e+01	9.952344199999999530e-01	4.068697799999999865e-03	9.812766899999999515e-01	-1.052681599999999960e-02	1.009350900000000051e+00	1.838300799999999929e-02
3.542939200000000000e+01	9.970220400000000538e-01	5.053311100000000035e-03	9.832578600000000391e-01	-9.546258999999999648e-03	1.011071300000000006e+00	1.926963900000000160e-02
3.740983200000000153e+01	9.988168299999999888e-01	5.700070899999999663e-03	9.847139799999999887e-01	-8.987197100000000188e-03	1.013316300000000059e+00	1.976083099999999954e-02
3.950097399999999936e+01	1.000705299999999909e+00	5.989159200000000044e-03	9.856934899999999500e-01	-8.354728599999999838e-03	1.016034399999999893e+00	1.977434900000000009e-02
4.170900699999999972e+01	1.002546399999999949e+00	5.893050500000000108e-03	9.866152500000000547e-01	-8.039566899999999600e-03	1.018836899999999934e+00	1.915115100000000167e-02
4.404046499999999753e+01	1.004335900000000059e+00	5.361200699999999798e-03	9.873250000000000082e-01	-7.973188000000000844e-03	1.021859000000000073e+00	1.853687299999999885e-02
4.650224699999999700e+01	1.005777900000000002e+00	4.641683800000000019e-03	9.880061700000000169e-01	-8.361796499999999202e-03	1.023724700000000043e+00	1.736586199999999927e-02
4.910163899999999870e+01	1.006931500000000090e+00	3.665441099999999786e-03	9.888007899999999850e-01	-8.893426600000000487e-03	1.025638199999999944e+00	1.619864099999999973e-02
5.184633199999999675e+01	1.007797599999999960e+00	2.380435599999999961e-03	9.895914700000000286e-01	-9.871358199999999417e-03	1.026747199999999971e+00	1.491954900000000070e-02
5.474444799999999844e+01	1.008302500000000101e+00	1.085509699999999932e-03	9.902144899999999472e-01	-1.120016400000000030e-02	1.027198999999999973e+00	1.368667999999999968e-02
5.780456399999999917e+01	1.008557600000000054e+00	-1.059883399999999990e-04	9.910682400000000447e-01	-1.266221499999999923e-02	1.026996199999999915e+00	1.284549500000000018e-02
6.103573500000000251e+01	1.008321500000000093e+00	-1.201610400000000011e-03	9.915830799999999501e-01	-1.442104100000000076e-02	1.026044799999999979e+00	1.211281399999999953e-02
6.444752200000000641e+01	1.008026400000000100e+00	-2.107575899999999860e-03	9.920240000000000169e-01	-1.606201499999999893e-02	1.024673100000000003e+00	1.158534999999999947e-02
6.805002199999999846e+01	1.007541299999999973e+00	-2.884825499999999886e-03	9.925721299999999969e-01	-1.756863900000000048e-02	1.022577300000000022e+00	1.150841699999999995e-02
7.185389600000000598e+01	1.006622399999999917e+00	-3.441148299999999879e-03	9.930916600000000427e-01	-1.880732300000000079e-02	1.020150499999999960e+00	1.147177700000000071e-02
7.587039900000000614e+01	1.005662000000000056e+00	-3.725043199999999999e-03	9.935350499999999752e-01	-1.960978500000000110e-02	1.017734600000000045e+00	1.181078699999999967e-02
8.011141700000000299e+01	1.004838499999999968e+00	-3.819236100000000193e-03	9.939978400000000214e-01	-2.014528900000000025e-02	1.015580799999999950e+00	1.237572999999999972e-02
8.458950099999999850e+01	1.003979900000000036e+00	-3.671334100000000090e-03	9.944998699999999525e-01	-2.023781300000000033e-02	1.013359200000000016e+00	1.291985200000000077e-02
8.931790100000000621e+01	1.003147699999999976e+00	-3.199876500000000106e-03	9.947077100000000227e-01	-2.002969799999999856e-02	1.011564899999999989e+00	1.346333899999999952e-02
9.431060999999999694e+01	1.002364400000000044e+00	-2.922785099999999827e-03	9.946829200000000260e-01	-1.959807200000000110e-02	1.010107599999999994e+00	1.390510499999999920e-02
9.958240299999999934e+01	1.001805000000000057e+00	-2.201252600000000101e-03	9.943565199999999660e-01	-1.888610799999999867e-02	1.009433500000000095e+00	1.439319200000000083e-02
1.051488800000000055e+02	1.001254099999999925e+00	-1.388687999999999902e-03	9.934698899999999666e-01	-1.764292500000000027e-02	1.009392000000000067e+00	1.460707399999999941e-02
1.110265100000000018e+02	1.000024400000000036e+00	3.256986999999999925e-04	9.912635499999999933e-01	-1.579798199999999861e-02	1.008785999999999961e+00	1.585983499999999921e-02
1.172326900000000052e+02	1.000828999999999969e+00	3.699009600000000052e-04	9.911292699999999511e-01	-1.420456099999999923e-02	1.010671700000000062e+00	1.458592499999999959e-02
1.237857900000000058e+02	1.000778200000000062e+00	1.191949600000000078e-03	9.899230399999999763e-01	-1.228731400000000057e-02	1.011762499999999898e+00	1.410645599999999986e-02
1.307051899999999875e+02	1.000907200000000108e+00	2.041169099999999830e-03	9.889121400000000506e-01	-1.019943700000000043e-02	1.012928899999999910e+00	1.372156499999999980e-02
1.380113800000000026e+02	1.001065000000000094e+00	2.852099099999999901e-03	9.881555400000000544e-01	-7.851228800000000299e-03	1.014106600000000080e+00	1.316973700000000080e-02
1.457259599999999864e+02	1.001414000000000026e+00	3.673872800000000174e-03	9.878929199999999522e-01	-5.525363999999999623e-03	1.015329200000000043e+00	1.260172000000000028e-02
1.538717800000000011e+02	1.002109600000000045e+00	4.283413399999999940e-03	9.881249100000000229e-01	-3.642319099999999799e-03	1.016151500000000096e+00	1.207944300000000047e-02
1.624729399999999941e+02	1.002705799999999980e+00	4.854247299999999571e-03	9.890509199999999446e-01	-1.973319199999999923e-03	1.016869199999999918e+00	1.158199399999999997e-02
1.715548799999999972e+02	1.003758099999999986e+00	4.798699400000000156e-03	9.905257499999999826e-01	-1.235919999999999944e-03	1.017314599999999958e+00	1.064247699999999915e-02
1.811444899999999905e+02	1.004420700000000055e+00	4.954384499999999782e-03	9.917404800000000353e-01	-5.811015100000000138e-04	1.017333800000000066e+00	1.028949000000000009e-02
1.912701399999999978e+02	1.005022800000000105e+00	4.744708999999999732e-03	9.931490600000000279e-01	-3.983311499999999750e-04	1.017202600000000068e+00	9.892524200000000698e-03
2.019617900000000077e+02	1.005594899999999958e+00	4.502205900000000316e-03	9.942800699999999603e-01	-5.048536799999999792e-04	1.017006499999999924e+00	9.480362500000000595e-03
2.132510900000000049e+02	1.005958899999999989e+00	4.182214899999999944e-03	9.952776399999999635e-01	-7.513636400000000539e-04	1.016565399999999952e+00	9.020213399999999285e-03
2.251714399999999898e+02	1.006244600000000045e+00	3.826865699999999846e-03	9.962844400000000489e-01	-9.973356300000001031e-04	1.016064099999999915e+00	8.617632499999999807e-03
2.377581199999999910e+02	1.006471499999999963e+00	3.482371900000000037e-03	9.970203399999999494e-01	-1.251213400000000071e-03	1.015576500000000104e+00	8.232692700000000460e-03
2.510483700000000056e+02	1.006597200000000081e+00	3.135287899999999930e-03	9.976555000000000284e-01	-1.498559700000000024e-03	1.015082000000000040e+00	7.883515599999999998e-03
2.650815200000000118e+02	1.006568799999999930e+00	2.886245400000000093e-03	9.980757000000000101e-01	-1.675421899999999945e-03	1.014631300000000014e+00	7.542920699999999638e-03
2.798990999999999758e+02	1.006490200000000002e+00	2.594517900000000050e-03	9.985935700000000415e-01	-1.783378599999999948e-03	1.014221500000000109e+00	7.159937499999999636e-03
2.955449499999999716e+02	1.006380300000000005e+00	2.440179299999999888e-03	9.988645400000000230e-01	-1.828785999999999997e-03	1.013857199999999903e+00	6.873196500000000424e-03
3.120653800000000047e+02	1.006327399999999983e+00	2.332334699999999948e-03	9.992016200000000126e-01	-1.841091999999999902e-03	1.013587900000000097e+00	6.589742800000000268e-03
3.295092700000000150e+02	1.005969499999999961e+00	2.249344999999999817e-03	9.990191800000000066e-01	-1.776980199999999904e-03	1.013023199999999902e+00	6.411623499999999712e-03
3.479282499999999914e+02	1.005721700000000052e+00	2.299397400000000036e-03	9.989256699999999878e-01	-1.646082400000000020e-03	1.012670200000000076e+00	6.342970899999999732e-03
3.673768099999999777e+02	1.005330099999999893e+00	2.494451899999999833e-03	9.986727300000000085e-01	-1.491578400000000051e-03	1.012198300000000106e+00	6.541975499999999957e-03
3.879125099999999975e+02	1.004868400000000106e+00	2.931140300000000150e-03	9.981759399999999838e-01	-1.152319300000000058e-03	1.011746199999999929e+00	7.126358499999999908e-03
4.095961199999999849e+02	1.006493899999999941e+00	5.243872699999999921e-03	9.995376700000000447e-01	8.120731299999999842e-04	1.013755200000000078e+00	9.788623600000000841e-03
4.324918000000000120e+02	1.004305299999999956e+00	4.870867299999999747e-03	9.975654099999999858e-01	1.432526099999999986e-05	1.011360999999999954e+00	9.840918800000000854e-03
4.566673099999999863e+02	1.005628299999999919e+00	7.684060599999999706e-03	9.984372900000000328e-01	1.843828500000000000e-03	1.012975100000000017e+00	1.355046099999999976e-02
4.821941899999999919e+02	1.010276299999999905e+00	4.925785999999999706e-03	1.002424900000000063e+00	2.724126000000000217e-04	1.018143699999999985e+00	9.679864399999999966e-03
5.091479699999999866e+02	1.008279699999999890e+00	5.704563000000000168e-03	1.000763099999999906e+00	3.493713199999999813e-04	1.016136499999999998e+00	1.110988800000000006e-02
5.376084299999999985e+02	1.010577700000000023e+00	6.581531699999999645e-03	1.002214500000000008e+00	9.551263600000000145e-04	1.019102699999999917e+00	1.215467999999999930e-02
5.676597699999999804e+02	1.008461300000000005e+00	4.349926500000000223e-03	1.000723699999999994e+00	-1.358891799999999931e-03	1.016501199999999994e+00	9.963607299999999861e-03
5.993909200000000510e+02	1.008018199999999975e+00	5.501368799999999809e-03	1.000008599999999914e+00	-8.925363400000000313e-04	1.016170100000000076e+00	1.192071700000000081e-02
6.328957900000000336e+02	1.008758499999999891e+00	6.328208999999999571e-03	1.000311200000000067e+00	-4.821073599999999818e-04	1.017168199999999967e+00	1.316855599999999966e-02
6.682735300000000507e+02	1.009519499999999903e+00	6.354611199999999661e-03	1.000823000000000018e+00	-6.051047500000000107e-04	1.018290399999999929e+00	1.341987099999999988e-02
7.056288100000000441e+02	1.010040199999999944e+00	6.016301600000000145e-03	1.001110399999999956e+00	-9.961845900000000295e-04	1.019096800000000025e+00	1.315322900000000066e-02
7.450721899999999778e+02	1.010171699999999895e+00	5.499136400000000091e-03	1.001194799999999940e+00	-1.444712899999999996e-03	1.019341000000000053e+00	1.270877999999999938e-02
7.867203799999999774e+02	1.010003900000000066e+00	5.127640200000000217e-03	1.001034999999999897e+00	-1.978012400000000049e-03	1.019200799999999907e+00	1.233677600000000069e-02
8.306966200000000526e+02	1.009647100000000020e+00	4.818056400000000385e-03	1.000668099999999949e+00	-2.448311800000000163e-03	1.018838600000000039e+00	1.209647900000000026e-02
8.771310700000000224e+02	1.009180600000000094e+00	4.604955800000000259e-03	1.000184299999999915e+00	-2.741913400000000039e-03	1.018422600000000067e+00	1.208280299999999960e-02
9.261611100000000079e+02	1.008985699999999985e+00	4.536218100000000315e-03	9.997593599999999858e-01	-3.072573400000000021e-03	1.018288199999999977e+00	1.218669500000000086e-02
9.779318399999999656e+02	1.008574899999999941e+00	4.209713200000000412e-03	9.993568999999999924e-01	-3.515089800000000160e-03	1.017918700000000065e+00	1.199472300000000054e-02
1.032596500000000106e+03	1.008093799999999929e+00	3.824869299999999941e-03	9.988994799999999508e-01	-3.972808900000000289e-03	1.017621200000000004e+00	1.177561499999999969e-02
1.090316700000000083e+03	1.007551000000000085e+00	3.457526299999999931e-03	9.983438999999999508e-01	-4.373240300000000129e-03	1.017192000000000096e+00	1.165809200000000011e-02
1.151263500000000022e+03	1.006952499999999917e+00	3.197177600000000036e-03	9.977429399999999671e-01	-4.911837700000000299e-03	1.016699000000000019e+00	1.145522900000000080e-02
1.215616999999999962e+03	1.006426499999999891e+00	2.748267100000000018e-03	9.970681900000000208e-01	-5.548365300000000083e-03	1.016335100000000047e+00	1.123312800000000021e-02
1.283567800000000034e+03	1.005886300000000011e+00	2.264473300000000022e-03	9.963129099999999960e-01	-6.395830400000000054e-03	1.015890100000000018e+00	1.099711400000000054e-02
1.355317000000000007e+03	1.005311000000000066e+00	1.767773199999999895e-03	9.954950999999999661e-01	-7.210593000000000384e-03	1.015554099999999904e+00	1.079600499999999914e-02
1.431076700000000073e+03	1.004818900000000070e+00	1.293463799999999960e-03	9.947318499999999730e-01	-8.057328100000000354e-03	1.015284300000000028e+00	1.063805599999999990e-02
1.511071300000000065e+03	1.004353199999999946e+00	7.083489299999999990e-04	9.939887200000000478e-01	-9.017845899999999901e-03	1.014936999999999978e+00	1.046635199999999995e-02
1.595537499999999909e+03	1.003764300000000054e+00	1.664048599999999936e-04	9.933148899999999504e-01	-1.007393300000000019e-02	1.014832500000000026e+00	1.028015699999999984e-02
1.684725200000000086e+03	1.003464399999999923e+00	-4.046107099999999993e-04	9.926414999999999544e-01	-1.110269099999999960e-02	1.014852300000000040e+00	1.010956200000000076e-02
1.778898200000000088e+03	1.003206800000000065e+00	-1.115754199999999903e-03	9.920477800000000457e-01	-1.228451300000000038e-02	1.015018100000000034e+00	1.002866600000000032e-02
1.878335399999999936e+03	1.003019399999999894e+00	-1.779248700000000006e-03	9.915512800000000349e-01	-1.347835200000000073e-02	1.015307200000000076e+00	9.987753699999999193e-03
1.983330999999999904e+03	1.003015699999999955e+00	-2.449100100000000096e-03	9.909639900000000168e-01	-1.476584899999999929e-02	1.015753600000000034e+00	9.978144399999999692e-03
2.094195600000000013e+03	1.003117299999999990e+00	-3.176844199999999917e-03	9.906660699999999542e-01	-1.608901700000000060e-02	1.016160699999999917e+00	9.812534899999999366e-03
